'Id: "" Comment: "" Operator: "Lab Manager" Anode: "Cu" Scantype: "Locked Coupled" TimePerStep: "19.2" X: "9999" Y: "9999" Z: "9999" 
10.0015 124.427
10.0318 105.312
10.0620 84.792
10.0923 71.615
10.1226 59.427
10.1529 52.917
10.1832 43.958
10.2134 39.323
10.2437 34.062
10.2740 30.729
10.3043 28.333
10.3346 25.104
10.3648 22.604
10.3951 20.937
10.4254 19.687
10.4557 18.802
10.4859 19.062
10.5162 18.229
10.5465 15.052
10.5768 14.479
10.6071 14.062
10.6373 14.219
10.6676 14.010
10.6979 14.531
10.7282 14.010
10.7585 12.135
10.7887 12.552
10.8190 13.229
10.8493 12.500
10.8796 12.969
10.9098 13.906
10.9401 14.062
10.9704 12.969
11.0007 15.312
11.0310 15.052
11.0612 15.625
11.0915 17.083
11.1218 16.667
11.1521 16.927
11.1824 18.125
11.2126 18.594
11.2429 20.937
11.2732 23.125
11.3035 32.135
11.3337 41.510
11.3640 53.646
11.3943 76.302
11.4246 103.698
11.4549 139.948
11.4851 142.031
11.5154 114.115
11.5457 64.219
11.5760 40.625
11.6063 31.667
11.6365 33.646
11.6668 32.031
11.6971 33.021
11.7274 35.469
11.7577 38.958
11.7879 40.625
11.8182 35.312
11.8485 32.135
11.8788 27.396
11.9090 23.646
11.9393 19.271
11.9696 17.708
11.9999 17.240
12.0302 15.208
12.0604 15.729
12.0907 17.917
12.1210 19.531
12.1513 19.375
12.1816 17.760
12.2118 13.854
12.2421 11.771
12.2724 9.219
12.3027 7.865
12.3329 8.854
12.3632 8.698
12.3935 7.708
12.4238 6.615
12.4541 6.250
12.4843 7.344
12.5146 6.198
12.5449 6.875
12.5752 5.781
12.6055 6.406
12.6357 5.625
12.6660 4.427
12.6963 6.354
12.7266 5.208
12.7568 6.198
12.7871 4.323
12.8174 5.469
12.8477 4.271
12.8780 5.677
12.9082 5.990
12.9385 5.729
12.9688 4.635
12.9991 5.573
13.0294 4.948
13.0596 5.312
13.0899 5.208
13.1202 4.635
13.1505 5.990
13.1807 5.104
13.2110 4.792
13.2413 5.885
13.2716 5.469
13.3019 5.990
13.3321 6.198
13.3624 7.292
13.3927 7.865
13.4230 10.677
13.4533 13.646
13.4835 11.250
13.5138 10.365
13.5441 6.771
13.5744 5.104
13.6046 4.948
13.6349 4.271
13.6652 5.729
13.6955 4.115
13.7258 6.042
13.7560 5.000
13.7863 5.625
13.8166 5.729
13.8469 6.094
13.8772 5.104
13.9074 3.906
13.9377 5.729
13.9680 5.729
13.9983 5.052
14.0285 5.469
14.0588 6.094
14.0891 5.937
14.1194 6.667
14.1497 6.250
14.1799 6.979
14.2102 7.187
14.2405 7.865
14.2708 9.062
14.3011 6.719
14.3313 8.906
14.3616 8.073
14.3919 9.167
14.4222 10.521
14.4524 11.771
14.4827 13.021
14.5130 12.240
14.5433 15.833
14.5736 18.385
14.6038 19.583
14.6341 23.906
14.6644 24.219
14.6947 31.354
14.7250 36.667
14.7552 40.417
14.7855 44.271
14.8158 44.687
14.8461 44.375
14.8764 43.802
14.9066 39.635
14.9369 35.521
14.9672 32.240
14.9975 27.240
15.0277 24.583
15.0580 18.958
15.0883 17.083
15.1186 13.906
15.1489 12.292
15.1791 11.823
15.2094 10.104
15.2397 9.271
15.2700 7.240
15.3003 7.396
15.3305 7.500
15.3608 6.562
15.3911 7.292
15.4214 5.104
15.4516 5.469
15.4819 6.198
15.5122 5.365
15.5425 5.312
15.5728 6.823
15.6030 7.448
15.6333 6.146
15.6636 7.135
15.6939 6.875
15.7242 5.677
15.7544 6.198
15.7847 5.885
15.8150 6.042
15.8453 4.844
15.8755 5.208
15.9058 5.104
15.9361 4.323
15.9664 3.646
15.9967 4.427
16.0269 3.750
16.0572 3.542
16.0875 4.687
16.1178 4.375
16.1481 4.323
16.1783 3.490
16.2086 3.646
16.2389 3.854
16.2692 3.542
16.2994 3.698
16.3297 3.073
16.3600 3.542
16.3903 3.385
16.4206 3.854
16.4508 3.750
16.4811 3.854
16.5114 3.646
16.5417 3.490
16.5720 3.177
16.6022 3.385
16.6325 2.917
16.6628 4.219
16.6931 3.385
16.7233 4.740
16.7536 5.156
16.7839 6.250
16.8142 5.000
16.8445 5.000
16.8747 4.115
16.9050 4.062
16.9353 4.427
16.9656 4.635
16.9959 4.375
17.0261 4.844
17.0564 4.115
17.0867 4.010
17.1170 3.542
17.1472 3.437
17.1775 3.437
17.2078 3.073
17.2381 2.552
17.2684 3.125
17.2986 3.490
17.3289 2.760
17.3592 3.177
17.3895 2.917
17.4198 3.646
17.4500 2.552
17.4803 2.760
17.5106 3.125
17.5409 3.490
17.5712 2.396
17.6014 2.656
17.6317 3.750
17.6620 3.437
17.6923 2.656
17.7225 2.292
17.7528 2.760
17.7831 2.344
17.8134 2.865
17.8437 2.760
17.8739 2.552
17.9042 2.708
17.9345 3.698
17.9648 2.187
17.9951 2.969
18.0253 2.656
18.0556 2.812
18.0859 2.240
18.1162 2.812
18.1464 2.760
18.1767 2.865
18.2070 2.708
18.2373 3.125
18.2676 2.812
18.2978 2.448
18.3281 2.760
18.3584 2.448
18.3887 2.552
18.4190 3.177
18.4492 2.240
18.4795 1.719
18.5098 2.760
18.5401 3.073
18.5703 2.344
18.6006 2.604
18.6309 3.281
18.6612 2.552
18.6915 2.396
18.7217 3.073
18.7520 3.177
18.7823 3.073
18.8126 2.760
18.8429 3.750
18.8731 3.073
18.9034 2.760
18.9337 2.865
18.9640 3.333
18.9942 2.240
19.0245 3.073
19.0548 2.917
19.0851 3.385
19.1154 2.708
19.1456 3.490
19.1759 3.385
19.2062 3.490
19.2365 3.229
19.2668 3.854
19.2970 3.281
19.3273 4.375
19.3576 4.479
19.3879 4.479
19.4181 3.542
19.4484 3.958
19.4787 3.750
19.5090 3.594
19.5393 3.750
19.5695 4.375
19.5998 3.958
19.6301 3.229
19.6604 3.333
19.6907 4.219
19.7209 3.906
19.7512 4.792
19.7815 5.208
19.8118 7.500
19.8420 6.979
19.8723 8.385
19.9026 7.500
19.9329 8.490
19.9632 7.917
19.9934 7.865
20.0237 7.604
20.0540 6.979
20.0843 5.677
20.1146 5.729
20.1448 5.521
20.1751 4.531
20.2054 4.844
20.2357 4.010
20.2659 4.792
20.2962 3.542
20.3265 3.594
20.3568 4.062
20.3871 3.542
20.4173 4.323
20.4476 3.281
20.4779 3.385
20.5082 2.240
20.5385 3.333
20.5687 3.646
20.5990 3.021
20.6293 3.073
20.6596 2.969
20.6899 2.604
20.7201 3.333
20.7504 3.333
20.7807 2.969
20.8110 2.760
20.8412 3.073
20.8715 3.542
20.9018 2.604
20.9321 3.490
20.9624 3.437
20.9926 3.906
21.0229 4.062
21.0532 3.333
21.0835 4.010
21.1138 5.052
21.1440 7.135
21.1743 9.427
21.2046 15.521
21.2349 19.167
21.2651 16.823
21.2954 12.135
21.3257 7.604
21.3560 4.687
21.3863 2.865
21.4165 4.010
21.4468 3.021
21.4771 3.385
21.5074 2.240
21.5377 3.177
21.5679 3.333
21.5982 2.604
21.6285 2.760
21.6588 3.229
21.6890 3.229
21.7193 2.448
21.7496 3.021
21.7799 2.865
21.8102 3.229
21.8404 2.708
21.8707 3.229
21.9010 3.333
21.9313 2.344
21.9616 2.865
21.9918 2.917
22.0221 2.917
22.0524 3.125
22.0827 2.604
22.1129 2.604
22.1432 2.656
22.1735 3.281
22.2038 2.344
22.2341 2.292
22.2643 2.448
22.2946 2.812
22.3249 2.812
22.3552 3.021
22.3855 3.281
22.4157 3.437
22.4460 2.917
22.4763 2.917
22.5066 3.177
22.5368 2.656
22.5671 3.229
22.5974 2.656
22.6277 3.125
22.6580 2.969
22.6882 3.333
22.7185 3.698
22.7488 2.708
22.7791 2.448
22.8094 2.760
22.8396 3.542
22.8699 3.177
22.9002 2.812
22.9305 4.740
22.9607 3.906
22.9910 3.229
23.0213 4.479
23.0516 4.740
23.0819 5.312
23.1121 8.437
23.1424 10.573
23.1727 16.927
23.2030 19.792
23.2333 18.906
23.2635 16.198
23.2938 10.104
23.3241 9.010
23.3544 5.417
23.3846 5.885
23.4149 6.406
23.4452 5.990
23.4755 5.156
23.5058 6.823
23.5360 6.562
23.5663 6.146
23.5966 6.823
23.6269 5.365
23.6572 5.990
23.6874 6.406
23.7177 6.719
23.7480 6.250
23.7783 5.885
23.8086 7.656
23.8388 7.083
23.8691 7.292
23.8994 6.823
23.9297 6.927
23.9599 5.729
23.9902 5.417
24.0205 5.000
24.0508 6.198
24.0811 5.625
24.1113 6.302
24.1416 7.187
24.1719 8.958
24.2022 12.812
24.2325 19.375
24.2627 17.083
24.2930 15.573
24.3233 13.958
24.3536 9.687
24.3838 6.823
24.4141 6.771
24.4444 6.615
24.4747 6.250
24.5050 6.354
24.5352 7.552
24.5655 8.281
24.5958 8.177
24.6261 8.281
24.6564 7.240
24.6866 8.073
24.7169 6.823
24.7472 9.115
24.7775 9.479
24.8077 10.781
24.8380 12.292
24.8683 15.052
24.8986 15.781
24.9289 19.635
24.9591 20.833
24.9894 21.094
25.0197 20.052
25.0500 18.594
25.0803 16.042
25.1105 14.583
25.1408 12.292
25.1711 12.604
25.2014 10.052
25.2316 9.271
25.2619 9.479
25.2922 8.229
25.3225 8.229
25.3528 6.667
25.3830 5.729
25.4133 4.896
25.4436 4.583
25.4739 4.583
25.5042 5.000
25.5344 4.323
25.5647 4.271
25.5950 3.906
25.6253 4.375
25.6555 4.583
25.6858 4.167
25.7161 4.375
25.7464 5.156
25.7767 4.740
25.8069 5.104
25.8372 4.948
25.8675 5.417
25.8978 5.677
25.9281 5.833
25.9583 6.771
25.9886 5.521
26.0189 5.052
26.0492 6.406
26.0794 6.354
26.1097 5.885
26.1400 6.250
26.1703 7.240
26.2006 6.979
26.2308 9.583
26.2611 15.000
26.2914 21.458
26.3217 24.427
26.3520 25.781
26.3822 20.469
26.4125 14.740
26.4428 11.823
26.4731 6.719
26.5034 7.344
26.5336 5.729
26.5639 5.417
26.5942 5.521
26.6245 5.990
26.6547 5.052
26.6850 5.260
26.7153 5.312
26.7456 5.625
26.7759 6.615
26.8061 6.250
26.8364 7.604
26.8667 6.250
26.8970 8.646
26.9273 7.500
26.9575 7.812
26.9878 7.240
27.0181 6.615
27.0484 7.760
27.0786 6.458
27.1089 5.885
27.1392 4.844
27.1695 5.521
27.1998 5.469
27.2300 6.042
27.2603 5.990
27.2906 7.708
27.3209 6.771
27.3512 6.250
27.3814 6.927
27.4117 6.302
27.4420 5.312
27.4723 6.094
27.5025 6.250
27.5328 8.177
27.5631 7.187
27.5934 7.812
27.6237 9.115
27.6539 10.312
27.6842 10.156
27.7145 11.458
27.7448 12.917
27.7751 15.156
27.8053 15.833
27.8356 18.750
27.8659 20.208
27.8962 20.365
27.9264 18.281
27.9567 21.406
27.9870 20.729
28.0173 20.000
28.0476 17.969
28.0778 16.510
28.1081 14.792
28.1384 12.865
28.1687 12.448
28.1990 11.458
28.2292 8.073
28.2595 8.750
28.2898 6.823
28.3201 6.198
28.3503 5.990
28.3806 5.365
28.4109 4.687
28.4412 5.156
28.4715 4.167
28.5017 4.844
28.5320 3.229
28.5623 3.802
28.5926 4.010
28.6229 3.437
28.6531 4.115
28.6834 4.062
28.7137 4.323
28.7440 3.229
28.7742 3.385
28.8045 4.010
28.8348 3.229
28.8651 3.750
28.8954 3.542
28.9256 3.177
28.9559 2.708
28.9862 3.125
29.0165 2.448
29.0468 2.865
29.0770 3.594
29.1073 4.010
29.1376 4.479
29.1679 3.021
29.1981 4.687
29.2284 4.323
29.2587 3.906
29.2890 3.750
29.3193 4.323
29.3495 3.854
29.3798 4.583
29.4101 4.271
29.4404 3.542
29.4707 4.115
29.5009 3.125
29.5312 2.552
29.5615 2.552
29.5918 2.812
29.6221 3.437
29.6523 3.333
29.6826 2.656
29.7129 3.021
29.7432 3.073
29.7734 3.125
29.8037 3.125
29.8340 3.229
29.8643 2.708
29.8946 2.500
29.9248 3.021
29.9551 3.125
29.9854 2.708
30.0157 2.500
30.0460 3.073
30.0762 3.021
30.1065 3.073
30.1368 3.021
30.1671 2.396
30.1973 2.969
30.2276 3.698
30.2579 3.906
30.2882 3.854
30.3185 4.062
30.3487 3.854
30.3790 3.073
30.4093 3.385
30.4396 3.281
30.4699 3.177
30.5001 3.333
30.5304 4.115
30.5607 3.542
30.5910 2.083
30.6212 3.437
30.6515 3.750
30.6818 2.812
30.7121 2.396
30.7424 3.073
30.7726 3.802
30.8029 3.750
30.8332 2.708
30.8635 3.229
30.8938 3.958
30.9240 3.177
30.9543 3.802
30.9846 3.594
31.0149 3.281
31.0451 3.958
31.0754 4.010
31.1057 3.854
31.1360 5.104
31.1663 5.156
31.1965 5.469
31.2268 5.833
31.2571 5.260
31.2874 6.146
31.3177 6.927
31.3479 6.667
31.3782 9.167
31.4085 10.417
31.4388 11.979
31.4690 13.073
31.4993 14.427
31.5296 16.771
31.5599 18.594
31.5902 19.896
31.6204 20.469
31.6507 24.896
31.6810 21.823
31.7113 23.906
31.7416 23.229
31.7718 17.969
31.8021 17.031
31.8324 14.219
31.8627 10.885
31.8929 8.906
31.9232 7.344
31.9535 7.500
31.9838 7.135
32.0141 6.719
32.0443 5.156
32.0746 5.781
32.1049 5.729
32.1352 5.312
32.1655 5.781
32.1957 4.740
32.2260 5.365
32.2563 5.000
32.2866 5.573
32.3169 5.625
32.3471 4.115
32.3774 6.406
32.4077 5.365
32.4380 4.948
32.4682 5.990
32.4985 4.635
32.5288 5.833
32.5591 6.510
32.5894 8.021
32.6196 9.271
32.6499 11.510
32.6802 14.531
32.7105 22.135
32.7408 47.396
32.7710 64.479
32.8013 48.021
32.8316 38.802
32.8619 34.635
32.8921 19.427
32.9224 11.927
32.9527 9.427
32.9830 8.646
33.0133 6.406
33.0435 8.646
33.0738 5.729
33.1041 7.500
33.1344 7.500
33.1647 6.146
33.1949 6.667
33.2252 7.083
33.2555 8.542
33.2858 12.292
33.3160 14.167
33.3463 10.000
33.3766 9.844
33.4069 9.375
33.4372 5.312
33.4674 4.479
33.4977 3.802
33.5280 4.375
33.5583 3.594
33.5886 2.969
33.6188 3.646
33.6491 3.385
33.6794 3.594
33.7097 4.115
33.7399 3.490
33.7702 3.854
33.8005 3.385
33.8308 3.542
33.8611 3.385
33.8913 4.219
33.9216 4.844
33.9519 4.792
33.9822 4.323
34.0125 5.729
34.0427 6.406
34.0730 7.292
34.1033 10.937
34.1336 12.344
34.1638 12.500
34.1941 13.229
34.2244 15.312
34.2547 13.490
34.2850 12.344
34.3152 12.083
34.3455 11.875
34.3758 9.115
34.4061 7.917
34.4364 7.031
34.4666 6.458
34.4969 5.990
34.5272 5.937
34.5575 6.250
34.5877 5.365
34.6180 7.135
34.6483 5.833
34.6786 6.354
34.7089 7.448
34.7391 8.333
34.7694 9.740
34.7997 17.917
34.8300 32.865
34.8603 52.760
34.8905 49.479
34.9208 35.521
34.9511 33.229
34.9814 24.792
35.0116 16.042
35.0419 10.625
35.0722 8.490
35.1025 6.458
35.1328 6.719
35.1630 7.344
35.1933 6.667
35.2236 5.521
35.2539 5.990
35.2842 5.260
35.3144 5.781
35.3447 5.521
35.3750 5.104
35.4053 5.833
35.4356 5.937
35.4658 4.792
35.4961 5.677
35.5264 6.354
35.5567 4.896
35.5869 5.937
35.6172 6.146
35.6475 5.573
35.6778 5.625
35.7081 6.562
35.7383 5.729
35.7686 6.042
35.7989 7.187
35.8292 7.604
35.8595 7.552
35.8897 8.906
35.9200 10.885
35.9503 12.500
35.9806 15.312
36.0108 15.833
36.0411 18.542
36.0714 18.437
36.1017 20.052
36.1320 17.708
36.1622 18.437
36.1925 14.323
36.2228 15.937
36.2531 12.135
36.2834 11.354
36.3136 10.521
36.3439 10.312
36.3742 8.698
36.4045 7.135
36.4347 6.458
36.4650 6.719
36.4953 5.156
36.5256 5.052
36.5559 4.323
36.5861 4.010
36.6164 3.490
36.6467 3.958
36.6770 3.177
36.7073 3.177
36.7375 3.854
36.7678 3.854
36.7981 3.854
36.8284 2.812
36.8586 2.760
36.8889 3.594
36.9192 3.490
36.9495 2.187
36.9798 3.542
37.0100 4.062
37.0403 3.490
37.0706 3.073
37.1009 3.177
37.1312 3.594
37.1614 4.115
37.1917 3.229
37.2220 4.375
37.2523 5.312
37.2825 7.656
37.3128 12.656
37.3431 15.052
37.3734 11.302
37.4037 10.312
37.4339 12.083
37.4642 9.635
37.4945 6.094
37.5248 5.365
37.5551 5.156
37.5853 4.479
37.6156 3.958
37.6459 4.427
37.6762 4.010
37.7064 4.115
37.7367 3.802
37.7670 3.750
37.7973 3.906
37.8276 3.229
37.8578 3.542
37.8881 3.542
37.9184 2.760
37.9487 2.760
37.9790 2.760
38.0092 3.281
38.0395 2.448
38.0698 2.500
38.1001 2.396
38.1304 2.292
38.1606 2.500
38.1909 2.708
38.2212 3.281
38.2515 1.927
38.2817 2.708
38.3120 2.187
38.3423 2.708
38.3726 2.604
38.4029 2.552
38.4331 3.073
38.4634 2.760
38.4937 2.760
38.5240 2.708
38.5543 2.396
38.5845 2.760
38.6148 3.177
38.6451 2.135
38.6754 3.229
38.7056 2.396
38.7359 2.344
38.7662 2.500
38.7965 2.604
38.8268 2.708
38.8570 3.125
38.8873 1.667
38.9176 2.292
38.9479 2.292
38.9782 2.240
39.0084 2.656
39.0387 2.135
39.0690 1.562
39.0993 2.500
39.1295 1.927
39.1598 2.240
39.1901 2.865
39.2204 2.865
39.2507 3.021
39.2809 2.344
39.3112 2.500
39.3415 2.031
39.3718 2.865
39.4021 1.771
39.4323 2.448
39.4626 2.500
39.4929 2.135
39.5232 1.875
39.5534 2.448
39.5837 2.135
39.6140 2.135
39.6443 2.760
39.6746 2.031
39.7048 1.979
39.7351 2.083
39.7654 2.031
39.7957 1.927
39.8260 2.187
39.8562 1.979
39.8865 2.135
39.9168 2.083
39.9471 1.615
39.9773 2.240
40.0076 2.135
40.0379 2.396
40.0682 2.344
40.0985 1.354
40.1287 1.771
40.1590 1.927
40.1893 2.812
40.2196 2.292
40.2499 2.500
40.2801 2.812
40.3104 1.615
40.3407 2.708
40.3710 2.604
40.4012 3.229
40.4315 3.646
40.4618 3.385
40.4921 5.052
40.5224 5.469
40.5526 9.271
40.5829 12.448
40.6132 11.823
40.6435 9.948
40.6738 9.896
40.7040 8.333
40.7343 7.031
40.7646 4.792
40.7949 4.427
40.8251 3.385
40.8554 3.281
40.8857 3.594
40.9160 3.333
40.9463 3.229
40.9765 3.437
41.0068 3.802
41.0371 3.021
41.0674 2.865
41.0977 3.437
41.1279 3.229
41.1582 3.333
41.1885 3.229
41.2188 3.490
41.2491 3.177
41.2793 2.448
41.3096 2.708
41.3399 3.437
41.3702 3.281
41.4004 3.333
41.4307 3.750
41.4610 4.167
41.4913 4.427
41.5216 5.000
41.5518 4.948
41.5821 4.948
41.6124 4.271
41.6427 5.521
41.6730 4.635
41.7032 5.260
41.7335 5.677
41.7638 5.000
41.7941 3.333
41.8243 3.542
41.8546 3.437
41.8849 3.125
41.9152 2.865
41.9455 2.865
41.9757 2.656
42.0060 2.760
42.0363 2.917
42.0666 2.552
42.0969 2.656
42.1271 2.344
42.1574 3.073
42.1877 2.240
42.2180 2.292
42.2482 2.083
42.2785 1.667
42.3088 2.240
42.3391 2.344
42.3694 1.927
42.3996 2.135
42.4299 2.344
42.4602 2.031
42.4905 1.927
42.5208 2.240
42.5510 2.240
42.5813 1.719
42.6116 1.927
42.6419 2.292
42.6721 1.927
42.7024 2.344
42.7327 2.031
42.7630 1.979
42.7933 1.719
42.8235 1.771
42.8538 2.604
42.8841 2.187
42.9144 1.979
42.9447 1.979
42.9749 3.021
43.0052 1.719
43.0355 2.031
43.0658 2.031
43.0960 2.552
43.1263 1.927
43.1566 2.344
43.1869 2.656
43.2172 2.292
43.2474 2.135
43.2777 2.604
43.3080 1.562
43.3383 2.552
43.3686 2.656
43.3988 3.229
43.4291 3.177
43.4594 2.969
43.4897 2.187
43.5199 3.333
43.5502 2.708
43.5805 1.875
43.6108 2.031
43.6411 2.135
43.6713 2.083
43.7016 1.771
43.7319 2.083
43.7622 3.021
43.7925 2.604
43.8227 1.979
43.8530 2.708
43.8833 2.500
43.9136 2.135
43.9439 1.823
43.9741 1.771
44.0044 2.656
44.0347 1.615
44.0650 2.604
44.0952 1.823
44.1255 2.083
44.1558 1.615
44.1861 2.083
44.2164 2.135
44.2466 2.448
44.2769 2.396
44.3072 2.552
44.3375 2.135
44.3678 3.125
44.3980 3.333
44.4283 4.583
44.4586 6.771
44.4889 5.521
44.5191 4.062
44.5494 4.115
44.5797 3.750
44.6100 3.542
44.6403 3.125
44.6705 2.865
44.7008 2.604
44.7311 1.771
44.7614 2.240
44.7917 2.292
44.8219 2.031
44.8522 2.344
44.8825 1.354
44.9128 2.917
44.9430 1.979
44.9733 2.812
45.0036 2.240
45.0339 2.396
45.0642 2.500
45.0944 2.604
45.1247 2.292
45.1550 2.448
45.1853 2.969
45.2156 2.240
45.2458 3.073
45.2761 3.594
45.3064 2.760
45.3367 1.979
45.3669 3.385
45.3972 2.708
45.4275 2.708
45.4578 1.667
45.4881 2.604
45.5183 2.135
45.5486 2.344
45.5789 2.031
45.6092 2.344
45.6395 2.396
45.6697 2.083
45.7000 1.719
45.7303 2.396
45.7606 2.344
45.7908 1.875
45.8211 2.083
45.8514 2.083
45.8817 2.240
45.9120 2.292
45.9422 2.396
45.9725 2.500
46.0028 2.396
46.0331 2.708
46.0634 2.292
46.0936 1.927
46.1239 1.927
46.1542 1.823
46.1845 2.396
46.2147 1.562
46.2450 2.031
46.2753 2.083
46.3056 2.969
46.3359 2.865
46.3661 2.448
46.3964 2.292
46.4267 2.448
46.4570 1.615
46.4873 1.823
46.5175 1.615
46.5478 2.135
46.5781 1.875
46.6084 2.031
46.6386 2.187
46.6689 2.083
46.6992 2.500
46.7295 2.083
46.7598 2.240
46.7900 1.667
46.8203 2.240
46.8506 1.823
46.8809 1.875
46.9112 2.500
46.9414 2.396
46.9717 2.500
47.0020 3.125
47.0323 2.344
47.0626 2.187
47.0928 2.604
47.1231 2.292
47.1534 2.500
47.1837 3.021
47.2139 2.448
47.2442 2.917
47.2745 2.448
47.3048 3.385
47.3351 3.385
47.3653 2.812
47.3956 3.229
47.4259 2.760
47.4562 4.271
47.4865 3.385
47.5167 4.271
47.5470 4.219
47.5773 4.375
47.6076 4.167
47.6378 4.479
47.6681 4.583
47.6984 4.010
47.7287 2.969
47.7590 4.167
47.7892 3.385
47.8195 2.865
47.8498 2.969
47.8801 2.708
47.9104 2.812
47.9406 2.135
47.9709 2.708
48.0012 2.552
48.0315 2.344
48.0617 2.656
48.0920 2.708
48.1223 2.135
48.1526 2.865
48.1829 2.760
48.2131 2.917
48.2434 2.552
48.2737 2.344
48.3040 2.500
48.3343 2.865
48.3645 2.292
48.3948 3.073
48.4251 3.177
48.4554 3.073
48.4856 2.708
48.5159 2.344
48.5462 2.708
48.5765 3.698
48.6068 3.958
48.6370 3.490
48.6673 3.177
48.6976 4.323
48.7279 4.948
48.7582 4.687
48.7884 5.469
48.8187 6.875
48.8490 9.375
48.8793 13.385
48.9095 13.333
48.9398 11.094
48.9701 9.583
49.0004 9.635
49.0307 9.687
49.0609 9.687
49.0912 7.812
49.1215 6.562
49.1518 5.781
49.1821 5.156
49.2123 5.000
49.2426 5.677
49.2729 5.469
49.3032 4.844
49.3334 4.010
49.3637 3.437
49.3940 3.229
49.4243 3.802
49.4546 3.385
49.4848 4.115
49.5151 3.906
49.5454 2.865
49.5757 3.073
49.6060 4.010
49.6362 3.021
49.6665 3.542
49.6968 3.750
49.7271 3.542
49.7574 4.219
49.7876 4.687
49.8179 5.469
49.8482 5.104
49.8785 4.115
49.9087 4.427
49.9390 4.219
49.9693 3.906
49.9996 3.854
50.0299 2.812
50.0601 3.021
50.0904 3.281
50.1207 3.281
50.1510 2.500
50.1813 2.448
50.2115 2.760
50.2418 2.917
50.2721 2.396
50.3024 2.396
50.3326 2.917
50.3629 2.240
50.3932 2.396
50.4235 2.500
50.4538 2.865
50.4840 2.865
50.5143 2.969
50.5446 2.292
50.5749 2.292
50.6052 1.771
50.6354 2.187
50.6657 2.031
50.6960 2.865
50.7263 3.281
50.7565 2.969
50.7868 2.240
50.8171 2.083
50.8474 2.135
50.8777 2.760
50.9079 2.865
50.9382 2.240
50.9685 2.344
50.9988 2.396
51.0291 2.344
51.0593 2.187
51.0896 2.760
51.1199 1.771
51.1502 2.760
51.1804 3.594
51.2107 2.812
51.2410 2.656
51.2713 3.125
51.3016 2.708
51.3318 2.969
51.3621 3.958
51.3924 3.646
51.4227 3.854
51.4530 4.167
51.4832 5.573
51.5135 8.177
51.5438 7.083
51.5741 6.667
51.6043 4.635
51.6346 4.740
51.6649 5.885
51.6952 4.323
51.7255 3.854
51.7557 4.271
51.7860 4.167
51.8163 3.125
51.8466 2.917
51.8769 3.542
51.9071 3.073
51.9374 3.229
51.9677 3.125
51.9980 2.292
52.0282 3.594
52.0585 3.906
52.0888 2.708
52.1191 3.437
52.1494 2.500
52.1796 2.969
52.2099 3.177
52.2402 2.760
52.2705 2.865
52.3008 2.917
52.3310 2.708
52.3613 3.073
52.3916 2.396
52.4219 2.656
52.4521 2.865
52.4824 2.396
52.5127 2.396
52.5430 3.542
52.5733 2.656
52.6035 2.552
52.6338 2.969
52.6641 2.708
52.6944 2.500
52.7247 2.187
52.7549 2.083
52.7852 3.177
52.8155 2.292
52.8458 2.656
52.8761 2.760
52.9063 2.396
52.9366 2.604
52.9669 2.812
52.9972 2.708
53.0274 2.604
53.0577 3.490
53.0880 2.917
53.1183 3.698
53.1486 3.021
53.1788 2.969
53.2091 2.917
53.2394 3.594
53.2697 3.437
53.3000 3.490
53.3302 3.177
53.3605 3.333
53.3908 3.229
53.4211 3.021
53.4513 3.229
53.4816 2.552
53.5119 2.656
53.5422 3.646
53.5725 2.187
53.6027 2.083
53.6330 1.979
53.6633 2.135
53.6936 1.719
53.7239 1.875
53.7541 2.604
53.7844 2.240
53.8147 1.615
53.8450 1.771
53.8752 2.292
53.9055 2.031
53.9358 2.187
53.9661 1.615
53.9964 2.500
54.0266 1.823
54.0569 1.510
54.0872 2.344
54.1175 2.187
54.1478 2.240
54.1780 1.979
54.2083 2.448
54.2386 1.875
54.2689 2.135
54.2991 1.979
54.3294 1.823
54.3597 2.031
54.3900 1.875
54.4203 1.719
54.4505 1.302
54.4808 2.083
54.5111 1.719
54.5414 1.927
54.5717 1.510
54.6019 1.771
54.6322 1.615
54.6625 1.979
54.6928 2.448
54.7230 1.406
54.7533 1.823
54.7836 2.187
54.8139 2.083
54.8442 1.979
54.8744 1.615
54.9047 1.979
54.9350 1.719
54.9653 1.719
54.9956 1.771
55.0258 1.927
55.0561 1.667
55.0864 2.031
55.1167 1.719
55.1469 1.979
55.1772 1.458
55.2075 1.979
55.2378 2.812
55.2681 2.344
55.2983 1.406
55.3286 1.979
55.3589 1.719
55.3892 2.135
55.4195 1.875
55.4497 2.604
55.4800 3.021
55.5103 2.969
55.5406 2.396
55.5709 2.865
55.6011 2.917
55.6314 3.021
55.6617 2.396
55.6920 1.823
55.7222 2.760
55.7525 1.823
55.7828 1.979
55.8131 2.396
55.8434 3.021
55.8736 2.187
55.9039 2.708
55.9342 2.240
55.9645 2.396
55.9948 2.760
56.0250 3.021
56.0553 3.385
56.0856 3.281
56.1159 3.385
56.1461 3.906
56.1764 4.635
56.2067 4.583
56.2370 4.740
56.2673 5.677
56.2975 6.875
56.3278 6.979
56.3581 7.448
56.3884 8.750
56.4187 9.010
56.4489 8.333
56.4792 7.292
56.5095 6.875
56.5398 6.146
56.5700 6.979
56.6003 6.979
56.6306 5.156
56.6609 5.260
56.6912 4.948
56.7214 4.531
56.7517 3.906
56.7820 3.125
56.8123 3.646
56.8426 3.594
56.8728 2.760
56.9031 3.437
56.9334 3.021
56.9637 2.708
56.9939 3.021
57.0242 2.865
57.0545 3.542
57.0848 2.552
57.1151 2.292
57.1453 2.917
57.1756 2.760
57.2059 2.083
57.2362 2.708
57.2665 2.969
57.2967 2.500
57.3270 1.979
57.3573 3.021
57.3876 2.240
57.4178 2.448
57.4481 2.604
57.4784 1.927
57.5087 2.552
57.5390 2.708
57.5692 2.969
57.5995 2.656
57.6298 2.396
57.6601 3.021
57.6904 3.073
57.7206 2.917
57.7509 2.760
57.7812 2.865
57.8115 2.604
57.8417 3.802
57.8720 2.865
57.9023 2.917
57.9326 2.031
57.9629 2.865
57.9931 3.125
58.0234 2.083
58.0537 2.865
58.0840 3.021
58.1143 2.917
58.1445 2.292
58.1748 2.344
58.2051 3.177
58.2354 3.333
58.2656 3.021
58.2959 2.865
58.3262 3.021
58.3565 3.385
58.3868 3.542
58.4170 3.750
58.4473 3.385
58.4776 4.479
58.5079 5.000
58.5382 6.562
58.5684 12.292
58.5987 22.552
58.6290 21.146
58.6593 11.458
58.6896 7.240
58.7198 7.917
58.7501 10.156
58.7804 12.448
58.8107 8.802
58.8409 5.625
58.8712 5.000
58.9015 4.635
58.9318 6.146
58.9621 5.885
58.9923 5.885
59.0226 6.823
59.0529 7.135
59.0832 5.208
59.1135 5.781
59.1437 5.625
59.1740 5.260
59.2043 4.948
59.2346 3.646
59.2648 4.010
59.2951 3.385
59.3254 3.385
59.3557 2.917
59.3860 2.969
59.4162 3.906
59.4465 3.177
59.4768 2.760
59.5071 2.344
59.5374 2.812
59.5676 3.021
59.5979 3.073
59.6282 2.708
59.6585 2.969
59.6887 2.969
59.7190 2.969
59.7493 2.865
59.7796 3.073
59.8099 3.073
59.8401 3.125
59.8704 4.479
59.9007 5.104
59.9310 7.396
59.9613 13.021
59.9915 11.823
60.0218 8.073
60.0521 5.625
60.0824 5.833
60.1126 7.448
60.1429 8.802
60.1732 6.354
60.2035 4.323
60.2338 3.281
60.2640 3.906
60.2943 2.812
60.3246 2.917
60.3549 3.073
60.3852 3.229
60.4154 2.969
60.4457 2.604
60.4760 2.240
60.5063 2.812
60.5365 3.385
60.5668 2.448
60.5971 2.448
60.6274 2.969
60.6577 2.500
60.6879 2.865
60.7182 1.406
60.7485 2.292
60.7788 2.760
60.8091 2.344
60.8393 1.771
60.8696 3.177
60.8999 2.760
60.9302 3.229
60.9604 3.490
60.9907 4.687
61.0210 3.646
61.0513 2.969
61.0816 2.812
61.1118 2.552
61.1421 3.177
61.1724 3.333
61.2027 3.437
61.2330 2.292
61.2632 2.292
61.2935 1.875
61.3238 2.292
61.3541 2.031
61.3844 1.823
61.4146 1.875
61.4449 2.031
61.4752 2.031
61.5055 2.135
61.5357 1.771
61.5660 2.031
61.5963 2.396
61.6266 2.448
61.6569 2.969
61.6871 2.083
61.7174 1.875
61.7477 2.240
61.7780 2.812
61.8083 2.135
61.8385 2.240
61.8688 2.396
61.8991 2.604
61.9294 2.604
61.9596 2.656
61.9899 2.135
62.0202 2.240
62.0505 2.187
62.0808 2.344
62.1110 2.604
62.1413 3.229
62.1716 3.437
62.2019 2.656
62.2322 3.333
62.2624 3.594
62.2927 3.177
62.3230 4.896
62.3533 3.333
62.3835 3.958
62.4138 4.323
62.4441 3.750
62.4744 4.167
62.5047 4.271
62.5349 3.750
62.5652 4.167
62.5955 3.802
62.6258 4.948
62.6561 4.844
62.6863 4.740
62.7166 4.323
62.7469 4.427
62.7772 3.542
62.8074 3.177
62.8377 4.062
62.8680 2.656
62.8983 3.437
62.9286 3.594
62.9588 2.760
62.9891 2.865
63.0194 3.698
63.0497 2.656
63.0800 2.865
63.1102 2.552
63.1405 3.125
63.1708 2.760
63.2011 2.552
63.2313 3.333
63.2616 2.344
63.2919 1.771
63.3222 2.500
63.3525 2.240
63.3827 2.552
63.4130 2.292
63.4433 2.396
63.4736 2.031
63.5039 2.083
63.5341 2.500
63.5644 2.292
63.5947 1.979
63.6250 1.667
63.6552 2.135
63.6855 1.510
63.7158 1.562
63.7461 1.354
63.7764 2.187
63.8066 1.250
63.8369 2.083
63.8672 2.083
63.8975 2.656
63.9278 3.073
63.9580 3.073
63.9883 2.292
64.0186 2.344
64.0489 2.031
64.0791 2.083
64.1094 2.396
64.1397 2.760
64.1700 1.875
64.2003 2.760
64.2305 1.771
64.2608 1.510
64.2911 1.510
64.3214 1.823
64.3517 2.083
64.3819 1.875
64.4122 1.250
64.4425 1.823
64.4728 1.667
64.5031 1.615
64.5333 1.302
64.5636 1.354
64.5939 1.510
64.6242 1.667
64.6544 2.031
64.6847 1.250
64.7150 1.979
64.7453 1.354
64.7756 1.927
64.8058 1.562
64.8361 1.406
64.8664 1.927
64.8967 1.875
64.9270 1.302
64.9572 1.823
64.9875 1.615
65.0178 1.302
65.0481 1.823
65.0783 1.927
65.1086 1.510
65.1389 1.562
65.1692 1.458
65.1995 1.667
65.2297 1.667
65.2600 1.927
65.2903 1.927
65.3206 1.406
65.3509 1.927
65.3811 1.719
65.4114 1.875
65.4417 1.875
65.4720 1.302
65.5022 1.146
65.5325 1.510
65.5628 1.302
65.5931 1.250
65.6234 1.823
65.6536 2.083
65.6839 1.146
65.7142 1.458
65.7445 1.458
65.7748 1.250
65.8050 1.979
65.8353 1.875
65.8656 2.187
65.8959 1.198
65.9261 1.979
65.9564 1.979
65.9867 1.510
66.0170 1.667
66.0473 1.719
66.0775 1.406
66.1078 2.187
66.1381 1.771
66.1684 2.083
66.1987 2.292
66.2289 1.927
66.2592 1.927
66.2895 2.083
66.3198 1.927
66.3500 1.823
66.3803 1.875
66.4106 1.458
66.4409 1.615
66.4712 1.875
66.5014 1.771
66.5317 1.927
66.5620 1.979
66.5923 1.823
66.6226 1.875
66.6528 1.875
66.6831 1.198
66.7134 1.458
66.7437 1.875
66.7739 1.875
66.8042 1.979
66.8345 1.354
66.8648 1.354
66.8951 1.771
66.9253 1.875
66.9556 1.354
66.9859 1.667
67.0162 1.510
67.0465 1.823
67.0767 1.198
67.1070 1.250
67.1373 1.823
67.1676 1.562
67.1978 1.875
67.2281 1.562
67.2584 1.875
67.2887 1.771
67.3190 1.615
67.3492 2.500
67.3795 1.875
67.4098 2.865
67.4401 2.760
67.4704 3.177
67.5006 2.344
67.5309 2.396
67.5612 2.812
67.5915 2.969
67.6218 2.604
67.6520 3.854
67.6823 3.385
67.7126 3.177
67.7429 2.969
67.7731 4.375
67.8034 3.229
67.8337 3.073
67.8640 3.646
67.8943 3.073
67.9245 3.542
67.9548 2.708
67.9851 2.031
68.0154 3.177
68.0457 2.969
68.0759 2.604
68.1062 2.760
68.1365 2.292
68.1668 2.240
68.1970 2.812
68.2273 1.875
68.2576 2.187
68.2879 2.812
68.3182 1.615
68.3484 2.552
68.3787 2.448
68.4090 1.927
68.4393 1.927
68.4696 1.302
68.4998 2.292
68.5301 2.083
68.5604 2.292
68.5907 1.979
68.6209 2.760
68.6512 2.240
68.6815 2.760
68.7118 3.021
68.7421 3.333
68.7723 3.177
68.8026 4.375
68.8329 5.469
68.8632 5.521
68.8935 4.479
68.9237 4.375
68.9540 2.865
68.9843 2.865
69.0146 2.865
69.0448 3.594
69.0751 3.750
69.1054 3.073
69.1357 2.344
69.1660 2.604
69.1962 2.448
69.2265 2.240
69.2568 2.552
69.2871 2.292
69.3174 2.292
69.3476 1.615
69.3779 1.771
69.4082 2.240
69.4385 1.979
69.4687 2.083
69.4990 1.302
69.5293 1.615
69.5596 1.458
69.5899 2.187
69.6201 2.812
69.6504 2.292
69.6807 2.292
69.7110 2.292
69.7413 1.823
69.7715 2.240
69.8018 2.865
69.8321 1.771
69.8624 2.604
69.8926 2.708
69.9229 2.187
69.9532 1.719
69.9835 1.406
70.0138 2.240
70.0440 2.500
70.0743 3.229
70.1046 4.271
70.1349 4.167
70.1652 2.812
70.1954 2.344
70.2257 2.604
70.2560 2.500
70.2863 3.333
70.3166 3.281
70.3468 2.500
70.3771 2.865
70.4074 2.604
70.4377 1.875
70.4679 1.927
70.4982 2.031
70.5285 2.292
70.5588 1.823
70.5891 2.292
70.6193 2.708
70.6496 2.083
70.6799 2.500
70.7102 2.031
70.7405 2.135
70.7707 1.771
70.8010 1.771
70.8313 2.031
70.8616 1.719
70.8918 2.448
70.9221 1.979
70.9524 1.719
70.9827 1.615
71.0130 1.198
71.0432 1.302
71.0735 1.458
71.1038 1.562
71.1341 1.667
71.1644 1.719
71.1946 1.146
71.2249 1.250
71.2552 1.406
71.2855 1.198
71.3157 1.979
71.3460 1.562
71.3763 1.094
71.4066 1.667
71.4369 1.354
71.4671 1.562
71.4974 1.406
71.5277 2.187
71.5580 1.198
71.5883 1.771
71.6185 1.510
71.6488 1.667
71.6791 1.771
71.7094 1.458
71.7396 1.667
71.7699 1.510
71.8002 1.979
71.8305 1.719
71.8608 1.250
71.8910 1.719
71.9213 1.927
71.9516 1.823
71.9819 1.667
72.0122 1.458
72.0424 1.198
72.0727 1.302
72.1030 1.562
72.1333 1.927
72.1635 1.719
72.1938 1.354
72.2241 1.458
72.2544 1.250
72.2847 1.198
72.3149 1.927
72.3452 1.562
72.3755 1.719
72.4058 2.760
72.4361 2.031
72.4663 2.292
72.4966 1.823
72.5269 1.927
72.5572 1.823
72.5874 1.979
72.6177 2.031
72.6480 2.031
72.6783 1.927
72.7086 2.083
72.7388 1.719
72.7691 1.927
72.7994 1.979
72.8297 2.240
72.8600 1.510
72.8902 2.240
72.9205 2.344
72.9508 2.083
72.9811 1.875
73.0113 2.240
73.0416 1.719
73.0719 1.875
73.1022 1.927
73.1325 1.354
73.1627 1.771
73.1930 1.719
73.2233 1.615
73.2536 1.406
73.2839 1.354
73.3141 1.771
73.3444 1.302
73.3747 1.510
73.4050 1.458
73.4353 1.667
73.4655 1.719
73.4958 1.458
73.5261 1.146
73.5564 1.562
73.5866 1.146
73.6169 1.198
73.6472 1.302
73.6775 1.458
73.7078 1.406
73.7380 1.771
73.7683 1.667
73.7986 2.656
73.8289 2.604
73.8592 2.604
73.8894 2.083
73.9197 1.719
73.9500 1.510
73.9803 2.135
74.0105 1.667
74.0408 2.187
74.0711 2.187
74.1014 1.667
74.1317 1.510
74.1619 1.458
74.1922 1.250
74.2225 1.250
74.2528 1.042
74.2831 1.250
74.3133 1.719
74.3436 1.250
74.3739 1.458
74.4042 1.354
74.4344 1.354
74.4647 1.354
74.4950 1.302
74.5253 1.302
74.5556 1.406
74.5858 1.458
74.6161 1.146
74.6464 1.615
74.6767 2.135
74.7070 1.771
74.7372 1.042
74.7675 0.781
74.7978 1.302
74.8281 1.146
74.8583 1.198
74.8886 1.198
74.9189 1.719
74.9492 1.354
74.9795 1.458
75.0097 1.719
75.0400 1.198
75.0703 2.240
75.1006 1.562
75.1309 1.562
75.1611 0.990
75.1914 0.990
75.2217 1.302
75.2520 1.458
75.2822 1.562
75.3125 1.719
75.3428 1.302
75.3731 1.354
75.4034 1.458
75.4336 1.354
75.4639 1.250
75.4942 1.146
75.5245 1.250
75.5548 1.615
75.5850 1.510
75.6153 1.198
75.6456 1.458
75.6759 1.406
75.7061 1.198
75.7364 1.458
75.7667 1.094
75.7970 1.198
75.8273 1.250
75.8575 0.781
75.8878 1.198
75.9181 1.250
75.9484 0.990
75.9787 1.562
76.0089 1.250
76.0392 1.458
76.0695 1.198
76.0998 1.302
76.1301 1.562
76.1603 1.667
76.1906 1.771
76.2209 1.354
76.2512 1.667
76.2814 1.250
76.3117 0.729
76.3420 1.615
76.3723 1.094
76.4026 1.406
76.4328 1.458
76.4631 1.875
76.4934 1.354
76.5237 1.667
76.5540 1.510
76.5842 1.250
76.6145 1.615
76.6448 1.146
76.6751 1.406
76.7053 1.354
76.7356 1.615
76.7659 1.771
76.7962 1.406
76.8265 1.979
76.8567 1.198
76.8870 1.719
76.9173 1.667
76.9476 1.771
76.9779 1.094
77.0081 1.615
77.0384 1.719
77.0687 1.094
77.0990 1.406
77.1292 1.562
77.1595 1.198
77.1898 1.562
77.2201 1.354
77.2504 1.042
77.2806 1.198
77.3109 1.510
77.3412 1.198
77.3715 1.562
77.4018 1.458
77.4320 1.250
77.4623 1.042
77.4926 1.667
77.5229 1.042
77.5531 1.458
77.5834 1.406
77.6137 1.198
77.6440 1.198
77.6743 1.406
77.7045 0.990
77.7348 1.458
77.7651 0.937
77.7954 1.562
77.8257 1.458
77.8559 2.083
77.8862 1.823
77.9165 1.510
77.9468 1.615
77.9770 1.354
78.0073 1.979
78.0376 1.406
78.0679 1.562
78.0982 1.302
78.1284 1.510
78.1587 1.146
78.1890 1.458
78.2193 1.250
78.2496 1.302
78.2798 1.198
78.3101 1.042
78.3404 1.094
78.3707 1.615
78.4009 1.562
78.4312 0.885
78.4615 1.667
78.4918 1.667
78.5221 1.406
78.5523 2.031
78.5826 1.562
78.6129 1.302
78.6432 1.615
78.6735 1.823
78.7037 1.615
78.7340 1.615
78.7643 1.562
78.7946 2.031
78.8248 1.719
78.8551 1.875
78.8854 1.719
78.9157 1.667
78.9460 1.406
78.9762 1.510
79.0065 1.510
79.0368 1.979
79.0671 1.667
79.0974 1.615
79.1276 1.198
79.1579 1.510
79.1882 1.198
79.2185 1.719
79.2488 1.823
79.2790 1.458
79.3093 1.354
79.3396 1.094
79.3699 0.990
79.4001 1.354
79.4304 1.667
79.4607 1.667
79.4910 1.615
79.5213 1.719
79.5515 1.302
79.5818 0.781
79.6121 1.510
79.6424 1.510
79.6727 1.719
79.7029 1.875
79.7332 2.083
79.7635 1.771
79.7938 2.344
79.8240 1.823
79.8543 2.604
79.8846 2.500
79.9149 2.083
79.9452 1.771
79.9754 2.292
80.0057 1.979
80.0360 1.562
80.0663 2.344
80.0966 1.927
80.1268 1.927
80.1571 1.979
80.1874 1.823
80.2177 2.240
80.2479 1.354
80.2782 1.615
80.3085 1.510
80.3388 1.146
80.3691 1.719
80.3993 1.927
80.4296 1.667
80.4599 1.042
80.4902 1.198
80.5205 1.302
80.5507 1.094
80.5810 1.302
80.6113 1.823
80.6416 1.094
80.6718 0.833
80.7021 1.667
80.7324 2.187
80.7627 1.198
80.7930 1.406
80.8232 1.458
80.8535 1.406
80.8838 1.198
80.9141 1.198
80.9444 1.250
80.9746 1.562
81.0049 1.719
81.0352 1.198
81.0655 1.823
81.0957 1.771
81.1260 1.719
81.1563 1.458
81.1866 1.458
81.2169 1.719
81.2471 1.719
81.2774 1.667
81.3077 1.042
81.3380 1.250
81.3683 1.250
81.3985 1.771
81.4288 2.135
81.4591 1.354
81.4894 1.042
81.5196 1.615
81.5499 1.094
81.5802 1.302
81.6105 1.146
81.6408 1.146
81.6710 1.615
81.7013 1.354
81.7316 1.042
81.7619 1.719
81.7922 1.198
81.8224 1.927
81.8527 0.937
81.8830 0.990
81.9133 1.302
81.9436 0.729
81.9738 1.458
82.0041 1.719
82.0344 0.729
82.0647 1.354
82.0949 0.937
82.1252 1.146
82.1555 1.094
82.1858 1.406
82.2161 1.510
82.2463 1.615
82.2766 1.615
82.3069 1.250
82.3372 1.510
82.3675 1.615
82.3977 1.250
82.4280 1.250
82.4583 1.198
82.4886 1.302
82.5188 0.990
82.5491 1.094
82.5794 1.302
82.6097 0.937
82.6400 1.302
82.6702 1.406
82.7005 1.354
82.7308 1.094
82.7611 1.146
82.7914 1.094
82.8216 0.990
82.8519 1.302
82.8822 1.198
82.9125 1.094
82.9427 1.042
82.9730 1.458
83.0033 1.042
83.0336 1.250
83.0639 1.250
83.0941 1.198
83.1244 1.667
83.1547 1.458
83.1850 1.198
83.2153 1.042
83.2455 1.198
83.2758 1.198
83.3061 1.198
83.3364 1.354
83.3666 0.833
83.3969 1.094
83.4272 1.250
83.4575 1.562
83.4878 1.562
83.5180 1.146
83.5483 1.354
83.5786 1.302
83.6089 1.250
83.6392 1.302
83.6694 1.615
83.6997 1.198
83.7300 1.927
83.7603 1.562
83.7905 1.510
83.8208 1.198
83.8511 1.198
83.8814 1.302
83.9117 1.615
83.9419 0.990
83.9722 1.042
84.0025 1.667
84.0328 0.990
84.0631 1.979
84.0933 1.719
84.1236 1.719
84.1539 1.562
84.1842 1.406
84.2144 1.458
84.2447 0.885
84.2750 1.406
84.3053 1.146
84.3356 1.667
84.3658 1.250
84.3961 1.615
84.4264 1.771
84.4567 1.458
84.4870 1.198
84.5172 1.875
84.5475 1.354
84.5778 1.354
84.6081 1.302
84.6383 1.250
84.6686 1.354
84.6989 1.302
84.7292 1.615
84.7595 1.615
84.7897 0.990
84.8200 1.562
84.8503 1.823
84.8806 1.406
84.9109 1.250
84.9411 1.771
84.9714 1.302
85.0017 1.198
85.0320 1.562
85.0623 1.042
85.0925 1.146
85.1228 1.198
85.1531 0.990
85.1834 1.250
85.2136 1.771
85.2439 0.937
85.2742 1.302
85.3045 1.823
85.3348 1.198
85.3650 1.458
85.3953 1.302
85.4256 1.094
85.4559 1.198
85.4862 1.510
85.5164 1.250
85.5467 1.198
85.5770 1.250
85.6073 1.875
85.6375 1.146
85.6678 1.198
85.6981 1.458
85.7284 1.510
85.7587 1.719
85.7889 1.354
85.8192 1.146
85.8495 1.406
85.8798 1.667
85.9101 1.875
85.9403 1.458
85.9706 1.667
86.0009 1.198
86.0312 1.250
86.0614 1.562
86.0917 0.990
86.1220 1.667
86.1523 1.667
86.1826 1.510
86.2128 1.458
86.2431 1.302
86.2734 1.406
86.3037 1.354
86.3340 1.510
86.3642 1.458
86.3945 1.146
86.4248 1.406
86.4551 1.979
86.4853 1.250
86.5156 1.198
86.5459 1.615
86.5762 1.198
86.6065 1.510
86.6367 1.615
86.6670 0.781
86.6973 1.042
86.7276 1.406
86.7579 1.458
86.7881 1.146
86.8184 1.406
86.8487 0.885
86.8790 1.250
86.9092 1.354
86.9395 1.042
86.9698 1.250
87.0001 1.198
87.0304 1.146
87.0606 1.042
87.0909 1.250
87.1212 0.937
87.1515 1.510
87.1818 1.146
87.2120 1.354
87.2423 1.510
87.2726 1.458
87.3029 1.094
87.3331 1.458
87.3634 0.990
87.3937 1.302
87.4240 1.198
87.4543 1.354
87.4845 1.198
87.5148 0.990
87.5451 1.250
87.5754 1.458
87.6057 1.198
87.6359 1.562
87.6662 1.250
87.6965 1.250
87.7268 1.354
87.7571 1.354
87.7873 1.510
87.8176 1.354
87.8479 1.302
87.8782 1.615
87.9084 0.885
87.9387 1.146
87.9690 1.458
87.9993 1.250
88.0296 1.823
88.0598 2.083
88.0901 2.292
88.1204 1.823
88.1507 1.667
88.1810 2.083
88.2112 1.458
88.2415 1.927
88.2718 1.406
88.3021 1.615
88.3323 2.135
88.3626 1.875
88.3929 1.667
88.4232 1.771
88.4535 1.979
88.4837 1.771
88.5140 1.979
88.5443 1.615
88.5746 1.146
88.6049 1.458
88.6351 1.510
88.6654 1.667
88.6957 1.250
88.7260 1.250
88.7562 1.615
88.7865 1.510
88.8168 1.198
88.8471 1.615
88.8774 1.198
88.9076 2.135
88.9379 1.771
88.9682 1.771
88.9985 1.198
89.0288 1.562
89.0590 1.615
89.0893 1.823
89.1196 1.354
89.1499 1.615
89.1801 1.562
89.2104 1.771
89.2407 1.354
89.2710 1.250
89.3013 1.510
89.3315 1.562
89.3618 1.719
89.3921 1.615
89.4224 1.510
89.4527 1.198
89.4829 1.771
89.5132 2.448
89.5435 1.823
89.5738 1.615
89.6040 2.031
89.6343 1.458
89.6646 1.510
89.6949 1.198
89.7252 1.979
89.7554 1.198
89.7857 1.146
89.8160 1.510
89.8463 1.615
89.8766 1.302
89.9068 1.510
89.9371 1.719
89.9674 0.937
89.9977 1.562
90.0279 1.354
90.0582 1.562
90.0885 1.562
90.1188 1.667
90.1491 1.354
90.1793 1.719
90.2096 1.198
90.2399 1.354
90.2702 1.354
90.3005 1.302
90.3307 0.990
90.3610 1.250
90.3913 1.458
90.4216 1.562
90.4518 1.146
90.4821 1.562
90.5124 1.771
90.5427 1.302
90.5730 1.250
90.6032 1.719
90.6335 1.250
90.6638 1.562
90.6941 1.615
90.7244 1.667
90.7546 1.615
90.7849 1.198
90.8152 1.510
90.8455 1.562
90.8758 1.562
90.9060 1.354
90.9363 1.250
90.9666 1.562
90.9969 1.667
91.0271 1.198
91.0574 1.146
91.0877 1.250
91.1180 1.406
91.1483 2.083
91.1785 1.146
91.2088 1.927
91.2391 1.146
91.2694 1.198
91.2997 1.198
91.3299 1.354
91.3602 0.990
91.3905 1.406
91.4208 1.250
91.4510 1.354
91.4813 1.510
91.5116 1.562
91.5419 1.146
91.5722 1.146
91.6024 1.146
91.6327 1.667
91.6630 1.615
91.6933 1.354
91.7236 1.094
91.7538 2.083
91.7841 1.510
91.8144 1.510
91.8447 1.562
91.8749 1.719
91.9052 1.667
91.9355 1.302
91.9658 1.458
91.9961 1.042
92.0263 1.198
92.0566 1.667
92.0869 0.781
92.1172 1.562
92.1475 1.406
92.1777 1.510
92.2080 1.042
92.2383 1.875
92.2686 1.042
92.2988 1.302
92.3291 1.875
92.3594 1.458
92.3897 1.146
92.4200 1.302
92.4502 1.198
92.4805 1.458
92.5108 1.406
92.5411 1.458
92.5714 1.562
92.6016 1.354
92.6319 1.198
92.6622 1.406
92.6925 1.406
92.7227 1.094
92.7530 1.667
92.7833 1.042
92.8136 1.406
92.8439 1.094
92.8741 1.354
92.9044 1.198
92.9347 1.562
92.9650 1.198
92.9953 0.521
93.0255 1.823
93.0558 1.667
93.0861 1.458
93.1164 1.979
93.1466 1.146
93.1769 1.615
93.2072 1.719
93.2375 1.510
93.2678 0.833
93.2980 1.198
93.3283 1.667
93.3586 1.198
93.3889 1.198
93.4192 1.458
93.4494 1.094
93.4797 1.198
93.5100 0.729
93.5403 1.510
93.5706 0.937
93.6008 1.615
93.6311 1.562
93.6614 1.615
93.6917 1.771
93.7219 1.406
93.7522 1.510
93.7825 1.719
93.8128 1.406
93.8431 1.615
93.8733 1.302
93.9036 1.302
93.9339 1.562
93.9642 1.302
93.9945 1.354
94.0247 1.667
94.0550 1.354
94.0853 1.458
94.1156 1.406
94.1458 1.250
94.1761 1.094
94.2064 1.250
94.2367 1.302
94.2670 0.885
94.2972 1.354
94.3275 1.250
94.3578 1.979
94.3881 1.250
94.4184 0.937
94.4486 1.146
94.4789 1.615
94.5092 1.510
94.5395 1.562
94.5697 1.146
94.6000 1.250
94.6303 1.927
94.6606 1.250
94.6909 1.719
94.7211 1.823
94.7514 1.667
94.7817 1.719
94.8120 1.302
94.8423 1.354
94.8725 1.406
94.9028 1.927
94.9331 1.198
94.9634 2.292
94.9936 1.615
95.0239 1.094
95.0542 2.187
95.0845 1.719
95.1148 1.771
95.1450 2.031
95.1753 1.510
95.2056 2.292
95.2359 1.667
95.2662 1.458
95.2964 1.823
95.3267 1.615
95.3570 1.250
95.3873 1.771
95.4175 1.406
95.4478 1.562
95.4781 1.823
95.5084 1.198
95.5387 1.719
95.5689 1.302
95.5992 1.406
95.6295 1.146
95.6598 1.406
95.6901 1.510
95.7203 1.719
95.7506 1.302
95.7809 1.094
95.8112 0.833
95.8414 1.406
95.8717 1.094
95.9020 1.250
95.9323 1.250
95.9626 1.146
95.9928 1.510
96.0231 0.990
96.0534 0.781
96.0837 0.937
96.1140 1.562
96.1442 1.615
96.1745 1.094
96.2048 1.146
96.2351 1.250
96.2653 0.990
96.2956 1.458
96.3259 1.458
96.3562 2.135
96.3865 1.719
96.4167 1.406
96.4470 1.094
96.4773 0.833
96.5076 1.146
96.5379 1.458
96.5681 0.781
96.5984 0.885
96.6287 1.250
96.6590 1.302
96.6893 1.354
96.7195 1.198
96.7498 0.937
96.7801 2.031
96.8104 1.406
96.8406 1.719
96.8709 2.031
96.9012 2.969
96.9315 2.344
96.9618 2.187
96.9920 1.875
97.0223 1.979
97.0526 1.823
97.0829 1.406
97.1132 1.354
97.1434 1.562
97.1737 1.302
97.2040 1.250
97.2343 1.562
97.2645 1.771
97.2948 2.031
97.3251 1.562
97.3554 1.250
97.3857 1.042
97.4159 1.771
97.4462 1.562
97.4765 0.937
97.5068 1.615
97.5371 0.990
97.5673 1.354
97.5976 0.990
97.6279 1.250
97.6582 1.094
97.6884 1.354
97.7187 1.250
97.7490 1.250
97.7793 1.094
97.8096 1.250
97.8398 1.250
97.8701 1.094
97.9004 1.146
97.9307 1.510
97.9610 1.771
97.9912 1.667
98.0215 1.250
98.0518 1.302
98.0821 2.292
98.1123 2.917
98.1426 2.448
98.1729 2.396
98.2032 2.031
98.2335 1.771
98.2637 1.562
98.2940 1.354
98.3243 1.719
98.3546 1.250
98.3849 1.771
98.4151 1.302
98.4454 2.031
98.4757 1.719
98.5060 1.719
98.5362 1.719
98.5665 1.302
98.5968 2.031
98.6271 1.823
98.6574 1.354
98.6876 1.406
98.7179 1.406
98.7482 1.510
98.7785 1.771
98.8088 1.510
98.8390 1.302
98.8693 1.615
98.8996 1.823
98.9299 1.302
98.9601 0.937
98.9904 1.302
99.0207 1.302
99.0510 1.302
99.0813 0.937
99.1115 1.302
99.1418 1.667
99.1721 1.719
99.2024 1.406
99.2327 1.094
99.2629 1.094
99.2932 0.937
99.3235 1.146
99.3538 1.458
99.3841 1.042
99.4143 1.198
99.4446 0.937
99.4749 1.198
99.5052 1.458
99.5354 1.458
99.5657 1.458
99.5960 1.615
99.6263 1.042
99.6566 1.406
99.6868 1.302
99.7171 1.094
99.7474 1.354
99.7777 1.406
99.8080 0.937
99.8382 1.198
99.8685 1.094
99.8988 1.198
99.9291 1.354
99.9593 1.406
99.9896 1.302
100.0199 1.406
100.0502 1.146
100.0805 0.885
100.1107 1.094
100.1410 1.771
100.1713 1.615
100.2016 1.250
100.2319 1.146
100.2621 1.302
100.2924 0.937
100.3227 1.302
100.3530 1.250
100.3832 1.562
100.4135 1.406
100.4438 1.302
100.4741 1.354
100.5044 1.146
100.5346 1.354
100.5649 1.406
100.5952 1.094
100.6255 1.250
100.6558 1.302
100.6860 1.302
100.7163 1.458
100.7466 0.990
100.7769 1.042
100.8071 1.302
100.8374 0.885
100.8677 1.146
100.8980 1.094
100.9283 1.250
100.9585 1.250
100.9888 1.198
101.0191 1.354
101.0494 0.990
101.0797 1.719
101.1099 1.302
101.1402 1.146
101.1705 1.667
101.2008 1.302
101.2310 1.042
101.2613 0.937
101.2916 0.990
101.3219 1.302
101.3522 1.250
101.3824 1.458
101.4127 1.198
101.4430 1.302
101.4733 1.198
101.5036 1.354
101.5338 1.354
101.5641 1.510
101.5944 1.354
101.6247 1.302
101.6549 1.719
101.6852 1.823
101.7155 1.667
101.7458 1.406
101.7761 1.719
101.8063 1.615
101.8366 1.667
101.8669 1.771
101.8972 1.667
101.9275 1.094
101.9577 1.406
101.9880 1.771
102.0183 1.823
102.0486 1.615
102.0788 1.354
102.1091 1.875
102.1394 1.562
102.1697 1.771
102.2000 1.979
102.2302 1.354
102.2605 0.833
102.2908 1.719
102.3211 1.667
102.3514 1.406
102.3816 1.458
102.4119 1.510
102.4422 1.667
102.4725 1.823
102.5028 1.719
102.5330 1.302
102.5633 1.302
102.5936 1.302
102.6239 1.354
102.6541 1.042
102.6844 1.354
102.7147 1.667
102.7450 1.354
102.7753 1.562
102.8055 1.146
102.8358 1.042
102.8661 1.354
102.8964 0.937
102.9267 1.562
102.9569 1.406
102.9872 1.354
103.0175 0.937
103.0478 1.302
103.0780 0.990
103.1083 1.927
103.1386 1.354
103.1689 1.094
103.1992 1.146
103.2294 1.615
103.2597 1.198
103.2900 1.042
103.3203 1.562
103.3506 1.354
103.3808 1.615
103.4111 1.094
103.4414 1.510
103.4717 1.562
103.5019 1.458
103.5322 1.406
103.5625 1.510
103.5928 1.771
103.6231 1.198
103.6533 1.510
103.6836 1.250
103.7139 1.458
103.7442 1.354
103.7745 1.146
103.8047 0.885
103.8350 1.458
103.8653 1.406
103.8956 1.667
103.9258 1.510
103.9561 0.937
103.9864 1.302
104.0167 1.562
104.0470 1.406
104.0772 1.406
104.1075 1.406
104.1378 1.406
104.1681 1.250
104.1984 1.198
104.2286 1.146
104.2589 1.667
104.2892 1.198
104.3195 0.833
104.3497 1.250
104.3800 1.354
104.4103 1.198
104.4406 0.833
104.4709 1.458
104.5011 1.302
104.5314 0.833
104.5617 1.146
104.5920 1.615
104.6223 1.146
104.6525 1.875
104.6828 1.250
104.7131 1.406
104.7434 1.250
104.7736 1.510
104.8039 1.354
104.8342 1.510
104.8645 0.990
104.8948 0.885
104.9250 1.354
104.9553 1.302
104.9856 1.042
105.0159 1.146
105.0462 0.885
105.0764 1.406
105.1067 1.094
105.1370 1.250
105.1673 1.354
105.1975 1.094
105.2278 1.146
105.2581 1.250
105.2884 1.146
105.3187 1.510
105.3489 1.146
105.3792 1.302
105.4095 1.510
105.4398 1.250
105.4701 1.146
105.5003 1.354
105.5306 1.250
105.5609 0.885
105.5912 1.458
105.6215 0.937
105.6517 1.302
105.6820 0.885
105.7123 1.615
105.7426 1.250
105.7728 1.615
105.8031 1.406
105.8334 1.302
105.8637 1.927
105.8940 1.354
105.9242 0.990
105.9545 1.615
105.9848 1.354
106.0151 1.198
106.0454 0.885
106.0756 1.250
106.1059 1.510
106.1362 1.302
106.1665 1.458
106.1967 1.458
106.2270 1.094
106.2573 1.250
106.2876 1.562
106.3179 1.615
106.3481 1.198
106.3784 1.146
106.4087 1.458
106.4390 0.885
106.4693 0.937
106.4995 1.406
106.5298 0.990
106.5601 1.354
106.5904 0.885
106.6206 1.250
106.6509 1.562
106.6812 1.146
106.7115 1.458
106.7418 1.094
106.7720 0.885
106.8023 1.302
106.8326 1.927
106.8629 0.781
106.8932 1.146
106.9234 0.885
106.9537 1.302
106.9840 1.979
107.0143 0.885
107.0445 1.146
107.0748 1.406
107.1051 0.937
107.1354 0.781
107.1657 1.406
107.1959 0.885
107.2262 0.937
107.2565 1.823
107.2868 1.406
107.3171 1.458
107.3473 0.990
107.3776 1.042
107.4079 1.406
107.4382 0.990
107.4684 1.250
107.4987 1.146
107.5290 1.354
107.5593 1.094
107.5896 1.042
107.6198 1.510
107.6501 0.885
107.6804 1.510
107.7107 1.615
107.7410 2.187
107.7712 2.083
107.8015 1.823
107.8318 1.458
107.8621 1.406
107.8923 1.667
107.9226 1.406
107.9529 1.667
107.9832 1.198
108.0135 1.250
108.0437 2.187
108.0740 1.458
108.1043 1.354
108.1346 1.875
108.1649 1.667
108.1951 2.135
108.2254 1.458
108.2557 1.458
108.2860 1.562
108.3163 1.354
108.3465 1.458
108.3768 1.667
108.4071 0.990
108.4374 1.198
108.4676 1.146
108.4979 0.937
108.5282 1.302
108.5585 1.302
108.5888 1.250
108.6190 0.885
108.6493 0.937
108.6796 1.562
108.7099 1.771
108.7402 1.042
108.7704 0.990
108.8007 1.198
108.8310 1.406
108.8613 0.937
108.8915 1.146
108.9218 1.406
108.9521 1.250
108.9824 1.406
109.0127 1.562
109.0429 1.302
109.0732 1.302
109.1035 0.990
109.1338 1.042
109.1641 1.198
109.1943 1.146
109.2246 1.146
109.2549 1.094
109.2852 1.146
109.3154 1.302
109.3457 1.042
109.3760 1.250
109.4063 1.094
109.4366 1.094
109.4668 1.667
109.4971 1.198
109.5274 1.458
109.5577 1.042
109.5880 1.354
109.6182 1.094
109.6485 1.458
109.6788 1.198
109.7091 1.615
109.7393 1.146
109.7696 1.302
109.7999 1.302
109.8302 1.458
109.8605 1.146
109.8907 1.146
109.9210 0.937
109.9513 1.198
109.9816 1.562
110.0119 1.875
110.0421 1.406
110.0724 1.094
110.1027 1.458
110.1330 1.354
110.1632 1.615
110.1935 0.937
110.2238 1.406
110.2541 1.562
110.2844 1.615
110.3146 1.562
110.3449 1.667
110.3752 1.562
110.4055 1.302
110.4358 1.562
110.4660 1.823
110.4963 1.510
110.5266 1.458
110.5569 1.198
110.5871 1.458
110.6174 1.562
110.6477 1.667
110.6780 1.146
110.7083 1.146
110.7385 1.146
110.7688 1.302
110.7991 1.042
110.8294 1.042
110.8597 1.615
110.8899 1.615
110.9202 1.979
110.9505 1.042
110.9808 1.458
111.0110 1.406
111.0413 1.615
111.0716 1.406
111.1019 1.562
111.1322 1.458
111.1624 0.990
111.1927 1.719
111.2230 0.937
111.2533 0.937
111.2836 1.615
111.3138 1.094
111.3441 1.146
111.3744 1.250
111.4047 0.781
111.4350 0.677
111.4652 0.990
111.4955 1.354
111.5258 0.937
111.5561 1.823
111.5863 1.719
111.6166 1.354
111.6469 1.250
111.6772 1.042
111.7075 1.094
111.7377 1.302
111.7680 0.990
111.7983 1.094
111.8286 1.562
111.8589 0.990
111.8891 1.406
111.9194 1.458
111.9497 1.667
111.9800 1.354
112.0102 0.781
112.0405 1.354
112.0708 0.833
112.1011 1.146
112.1314 1.146
112.1616 1.406
112.1919 1.094
112.2222 1.146
112.2525 1.406
112.2828 1.667
112.3130 1.615
112.3433 1.198
112.3736 1.406
112.4039 1.667
112.4341 1.094
112.4644 1.406
112.4947 1.302
112.5250 1.458
112.5553 1.562
112.5855 0.937
112.6158 0.729
112.6461 1.250
112.6764 1.146
112.7067 1.823
112.7369 1.042
112.7672 1.562
112.7975 1.667
112.8278 1.510
112.8580 1.510
112.8883 1.198
112.9186 0.990
112.9489 1.458
112.9792 0.833
113.0094 0.990
113.0397 1.302
113.0700 1.042
113.1003 1.198
113.1306 1.302
113.1608 1.302
113.1911 0.937
113.2214 1.302
113.2517 1.354
113.2819 1.198
113.3122 1.510
113.3425 1.354
113.3728 1.198
113.4031 1.510
113.4333 1.406
113.4636 1.146
113.4939 0.677
113.5242 1.458
113.5545 0.573
113.5847 1.302
113.6150 1.146
113.6453 1.042
113.6756 1.042
113.7058 1.667
113.7361 1.198
113.7664 1.198
113.7967 0.990
113.8270 1.458
113.8572 1.302
113.8875 1.042
113.9178 1.615
113.9481 1.719
113.9784 1.146
114.0086 1.562
114.0389 0.937
114.0692 1.719
114.0995 0.990
114.1298 1.094
114.1600 1.302
114.1903 1.094
114.2206 1.302
114.2509 1.146
114.2811 1.719
114.3114 0.885
114.3417 1.094
114.3720 1.302
114.4023 1.510
114.4325 0.990
114.4628 1.667
114.4931 0.937
114.5234 1.250
114.5537 1.354
114.5839 1.094
114.6142 1.354
114.6445 1.719
114.6748 1.302
114.7050 1.823
114.7353 2.083
114.7656 1.146
114.7959 1.146
114.8262 1.458
114.8564 1.354
114.8867 1.406
114.9170 1.406
114.9473 0.937
114.9776 1.198
115.0078 1.042
115.0381 1.719
115.0684 1.198
115.0987 1.458
115.1289 1.094
115.1592 1.198
115.1895 1.510
115.2198 1.823
115.2501 1.615
115.2803 1.458
115.3106 1.198
115.3409 1.823
115.3712 1.094
115.4015 1.927
115.4317 1.146
115.4620 1.510
115.4923 1.510
115.5226 1.094
115.5528 1.042
115.5831 1.927
115.6134 1.302
115.6437 1.771
115.6740 1.510
115.7042 1.615
115.7345 1.615
115.7648 2.292
115.7951 1.771
115.8254 0.990
115.8556 1.927
115.8859 1.510
115.9162 1.979
115.9465 1.771
115.9767 1.667
116.0070 1.927
116.0373 1.198
116.0676 1.510
116.0979 1.771
116.1281 1.562
116.1584 1.615
116.1887 2.396
116.2190 1.979
116.2493 1.927
116.2795 1.510
116.3098 1.927
116.3401 2.448
116.3704 1.354
116.4006 1.562
116.4309 1.667
116.4612 1.562
116.4915 1.615
116.5218 1.979
116.5520 2.604
116.5823 2.083
116.6126 2.812
116.6429 2.500
116.6732 1.979
116.7034 2.344
116.7337 1.979
116.7640 2.292
116.7943 1.927
116.8245 1.771
116.8548 1.719
116.8851 1.615
116.9154 2.396
116.9457 1.875
116.9759 1.615
117.0062 1.979
117.0365 1.667
117.0668 1.458
117.0971 1.823
117.1273 1.615
117.1576 1.198
117.1879 1.667
117.2182 1.198
117.2485 2.031
117.2787 1.406
117.3090 1.510
117.3393 1.510
117.3696 1.042
117.3998 1.458
117.4301 1.667
117.4604 1.719
117.4907 1.771
117.5210 1.771
117.5512 1.562
117.5815 2.031
117.6118 2.344
117.6421 1.979
117.6724 1.250
117.7026 1.510
117.7329 1.250
117.7632 1.354
117.7935 1.198
117.8237 1.406
117.8540 1.250
117.8843 1.719
117.9146 1.406
117.9449 1.458
117.9751 1.562
118.0054 1.771
118.0357 1.667
118.0660 1.406
118.0963 1.250
118.1265 1.354
118.1568 0.990
118.1871 1.146
118.2174 1.823
118.2476 1.875
118.2779 1.615
118.3082 0.781
118.3385 1.510
118.3688 1.458
118.3990 1.094
118.4293 1.458
118.4596 0.885
118.4899 1.510
118.5202 1.823
118.5504 1.406
118.5807 1.875
118.6110 1.198
118.6413 1.458
118.6715 1.562
118.7018 1.823
118.7321 1.562
118.7624 1.615
118.7927 1.406
118.8229 1.354
118.8532 1.198
118.8835 1.458
118.9138 1.823
118.9441 1.302
118.9743 1.562
119.0046 1.250
119.0349 1.615
119.0652 1.458
119.0954 1.354
119.1257 1.562
119.1560 1.094
119.1863 2.031
119.2166 1.146
119.2468 1.250
119.2771 1.510
119.3074 1.406
119.3377 1.458
119.3680 0.990
119.3982 1.354
119.4285 0.990
119.4588 1.354
119.4891 0.625
119.5193 1.354
119.5496 1.042
119.5799 1.562
119.6102 1.198
119.6405 1.250
119.6707 1.406
119.7010 1.615
119.7313 1.302
119.7616 1.250
119.7919 1.510
119.8221 1.562
119.8524 1.354
119.8827 0.729
119.9130 1.562
119.9433 1.406
119.9735 1.927
120.0038 1.042
