'Id: "" Comment: "" Operator: "Lab Manager" Anode: "Cu" Scantype: "Locked Coupled" TimePerStep: "19.2" X: "9999" Y: "9999" Z: "9999" 
10.0015 155.104
10.0318 152.500
10.0620 161.719
10.0923 164.427
10.1226 167.552
10.1529 165.417
10.1832 165.729
10.2134 168.333
10.2437 168.490
10.2740 172.760
10.3043 175.521
10.3346 172.708
10.3648 183.073
10.3951 186.302
10.4254 189.427
10.4557 189.219
10.4859 192.708
10.5162 191.771
10.5465 188.750
10.5768 184.271
10.6071 195.781
10.6373 196.719
10.6676 194.375
10.6979 197.240
10.7282 183.802
10.7585 186.562
10.7887 184.010
10.8190 187.292
10.8493 185.208
10.8796 175.469
10.9098 172.448
10.9401 164.479
10.9704 166.719
11.0007 163.854
11.0310 154.167
11.0612 151.354
11.0915 144.635
11.1218 135.000
11.1521 141.354
11.1824 131.146
11.2126 123.542
11.2429 121.771
11.2732 119.948
11.3035 114.531
11.3337 114.010
11.3640 104.115
11.3943 104.323
11.4246 103.177
11.4549 99.219
11.4851 99.740
11.5154 100.260
11.5457 98.490
11.5760 99.531
11.6063 102.865
11.6365 108.073
11.6668 117.760
11.6971 119.062
11.7274 126.510
11.7577 120.260
11.7879 101.823
11.8182 85.260
11.8485 71.875
11.8788 65.156
11.9090 68.385
11.9393 61.406
11.9696 60.885
11.9999 55.885
12.0302 57.031
12.0604 54.948
12.0907 53.750
12.1210 48.698
12.1513 46.562
12.1816 49.635
12.2118 46.146
12.2421 42.292
12.2724 44.115
12.3027 43.750
12.3329 39.792
12.3632 38.698
12.3935 41.354
12.4238 39.323
12.4541 37.917
12.4843 36.354
12.5146 34.844
12.5449 35.052
12.5752 33.542
12.6055 34.844
12.6357 34.531
12.6660 35.469
12.6963 32.031
12.7266 33.385
12.7568 30.781
12.7871 30.417
12.8174 29.948
12.8477 30.156
12.8780 29.427
12.9082 27.917
12.9385 28.594
12.9688 29.167
12.9991 27.969
13.0294 25.833
13.0596 26.667
13.0899 28.542
13.1202 26.875
13.1505 26.198
13.1807 26.146
13.2110 26.875
13.2413 25.208
13.2716 25.469
13.3019 27.031
13.3321 26.823
13.3624 21.771
13.3927 24.271
13.4230 25.156
13.4533 24.740
13.4835 25.573
13.5138 22.656
13.5441 23.698
13.5744 23.281
13.6046 25.052
13.6349 26.458
13.6652 25.260
13.6955 26.979
13.7258 24.167
13.7560 23.542
13.7863 23.125
13.8166 24.062
13.8469 22.083
13.8772 24.375
13.9074 23.594
13.9377 21.510
13.9680 21.979
13.9983 21.302
14.0285 19.948
14.0588 22.292
14.0891 21.302
14.1194 22.031
14.1497 22.656
14.1799 22.396
14.2102 23.177
14.2405 20.521
14.2708 22.865
14.3011 21.823
14.3313 23.750
14.3616 20.417
14.3919 22.760
14.4222 23.854
14.4524 21.771
14.4827 22.135
14.5130 23.437
14.5433 21.198
14.5736 23.854
14.6038 21.927
14.6341 20.573
14.6644 20.833
14.6947 20.000
14.7250 22.552
14.7552 19.635
14.7855 22.083
14.8158 21.823
14.8461 20.469
14.8764 22.552
14.9066 20.937
14.9369 19.427
14.9672 19.010
14.9975 21.302
15.0277 20.833
15.0580 19.740
15.0883 20.937
15.1186 20.312
15.1489 20.625
15.1791 21.302
15.2094 20.417
15.2397 19.219
15.2700 19.219
15.3003 20.937
15.3305 19.062
15.3608 19.010
15.3911 18.437
15.4214 19.583
15.4516 20.573
15.4819 19.167
15.5122 18.750
15.5425 20.312
15.5728 20.208
15.6030 17.656
15.6333 20.104
15.6636 17.865
15.6939 18.646
15.7242 17.344
15.7544 18.229
15.7847 15.417
15.8150 18.229
15.8453 17.500
15.8755 16.719
15.9058 17.240
15.9361 16.927
15.9664 17.344
15.9967 16.979
16.0269 16.719
16.0572 17.292
16.0875 16.667
16.1178 16.354
16.1481 15.208
16.1783 15.000
16.2086 17.344
16.2389 15.000
16.2692 16.250
16.2994 15.000
16.3297 15.417
16.3600 15.000
16.3903 16.094
16.4206 14.740
16.4508 14.062
16.4811 14.687
16.5114 13.594
16.5417 14.323
16.5720 14.219
16.6022 14.010
16.6325 12.969
16.6628 13.437
16.6931 14.062
16.7233 13.073
16.7536 14.062
16.7839 14.115
16.8142 14.115
16.8445 14.219
16.8747 11.615
16.9050 13.646
16.9353 15.312
16.9656 13.958
16.9959 11.198
17.0261 14.323
17.0564 12.500
17.0867 13.750
17.1170 12.031
17.1472 13.073
17.1775 13.125
17.2078 13.385
17.2381 11.510
17.2684 11.562
17.2986 12.240
17.3289 11.354
17.3592 12.552
17.3895 12.760
17.4198 11.979
17.4500 11.250
17.4803 12.552
17.5106 12.760
17.5409 12.760
17.5712 12.448
17.6014 12.448
17.6317 12.656
17.6620 11.094
17.6923 11.146
17.7225 11.771
17.7528 11.823
17.7831 11.562
17.8134 10.781
17.8437 12.292
17.8739 12.396
17.9042 11.562
17.9345 11.302
17.9648 10.990
17.9951 11.875
18.0253 12.604
18.0556 12.031
18.0859 12.969
18.1162 15.312
18.1464 13.802
18.1767 14.427
18.2070 12.083
18.2373 12.292
18.2676 12.969
18.2978 15.052
18.3281 13.854
18.3584 14.062
18.3887 14.687
18.4190 16.771
18.4492 14.062
18.4795 15.052
18.5098 16.458
18.5401 16.094
18.5703 16.146
18.6006 16.406
18.6309 13.958
18.6612 16.771
18.6915 15.625
18.7217 15.885
18.7520 16.146
18.7823 16.458
18.8126 15.417
18.8429 16.094
18.8731 14.896
18.9034 14.635
18.9337 15.625
18.9640 15.104
18.9942 15.521
19.0245 14.844
19.0548 14.479
19.0851 14.323
19.1154 13.281
19.1456 14.219
19.1759 11.771
19.2062 11.875
19.2365 13.281
19.2668 13.281
19.2970 12.344
19.3273 13.542
19.3576 11.719
19.3879 11.094
19.4181 11.406
19.4484 9.740
19.4787 9.948
19.5090 10.885
19.5393 10.469
19.5695 9.271
19.5998 10.937
19.6301 9.167
19.6604 9.479
19.6907 9.167
19.7209 9.583
19.7512 9.323
19.7815 8.125
19.8118 9.062
19.8420 10.312
19.8723 10.208
19.9026 7.812
19.9329 8.958
19.9632 8.177
19.9934 8.125
20.0237 7.865
20.0540 8.177
20.0843 8.177
20.1146 8.594
20.1448 7.448
20.1751 8.229
20.2054 8.333
20.2357 6.979
20.2659 8.073
20.2962 7.917
20.3265 7.656
20.3568 7.760
20.3871 9.062
20.4173 7.187
20.4476 6.094
20.4779 7.135
20.5082 6.458
20.5385 7.969
20.5687 6.406
20.5990 7.187
20.6293 7.135
20.6596 6.667
20.6899 6.927
20.7201 7.240
20.7504 6.354
20.7807 7.240
20.8110 6.771
20.8412 6.615
20.8715 6.979
20.9018 6.146
20.9321 7.292
20.9624 6.771
20.9926 7.500
21.0229 7.135
21.0532 6.927
21.0835 8.021
21.1138 6.198
21.1440 7.917
21.1743 8.437
21.2046 7.240
21.2349 8.490
21.2651 8.281
21.2954 6.927
21.3257 6.719
21.3560 7.448
21.3863 7.552
21.4165 5.781
21.4468 5.573
21.4771 7.396
21.5074 8.073
21.5377 6.406
21.5679 6.510
21.5982 6.354
21.6285 7.917
21.6588 7.031
21.6890 6.562
21.7193 7.344
21.7496 6.354
21.7799 6.562
21.8102 6.250
21.8404 6.510
21.8707 5.521
21.9010 6.562
21.9313 7.187
21.9616 6.979
21.9918 5.937
22.0221 7.187
22.0524 7.031
22.0827 5.156
22.1129 7.500
22.1432 7.083
22.1735 6.979
22.2038 6.562
22.2341 7.604
22.2643 7.240
22.2946 6.979
22.3249 6.615
22.3552 6.875
22.3855 7.969
22.4157 6.979
22.4460 7.292
22.4763 7.917
22.5066 6.562
22.5368 7.500
22.5671 6.146
22.5974 5.885
22.6277 6.042
22.6580 7.448
22.6882 7.083
22.7185 5.990
22.7488 5.260
22.7791 7.656
22.8094 6.979
22.8396 7.448
22.8699 6.823
22.9002 6.562
22.9305 7.448
22.9607 7.135
22.9910 7.604
23.0213 7.604
23.0516 8.073
23.0819 7.187
23.1121 6.719
23.1424 9.479
23.1727 7.969
23.2030 7.031
23.2333 8.125
23.2635 8.437
23.2938 7.344
23.3241 7.812
23.3544 8.698
23.3846 9.323
23.4149 9.479
23.4452 9.479
23.4755 8.698
23.5058 8.490
23.5360 8.073
23.5663 10.000
23.5966 10.208
23.6269 11.406
23.6572 10.104
23.6874 13.229
23.7177 13.802
23.7480 12.865
23.7783 12.396
23.8086 12.448
23.8388 12.187
23.8691 9.740
23.8994 10.729
23.9297 10.052
23.9599 8.958
23.9902 8.958
24.0205 8.021
24.0508 9.583
24.0811 10.469
24.1113 10.312
24.1416 9.687
24.1719 10.156
24.2022 10.312
24.2325 10.312
24.2627 10.729
24.2930 10.312
24.3233 12.865
24.3536 11.198
24.3838 13.021
24.4141 11.875
24.4444 11.094
24.4747 11.667
24.5050 13.542
24.5352 12.760
24.5655 11.042
24.5958 12.292
24.6261 12.552
24.6564 11.927
24.6866 13.646
24.7169 13.594
24.7472 13.073
24.7775 14.740
24.8077 13.698
24.8380 12.969
24.8683 12.812
24.8986 14.635
24.9289 14.167
24.9591 15.573
24.9894 14.219
25.0197 14.115
25.0500 14.948
25.0803 15.052
25.1105 14.948
25.1408 14.792
25.1711 14.219
25.2014 18.073
25.2316 13.594
25.2619 13.854
25.2922 14.531
25.3225 14.271
25.3528 14.844
25.3830 14.635
25.4133 15.104
25.4436 15.260
25.4739 14.479
25.5042 13.490
25.5344 13.646
25.5647 13.385
25.5950 15.260
25.6253 13.854
25.6555 13.542
25.6858 14.687
25.7161 14.792
25.7464 14.271
25.7767 15.677
25.8069 15.052
25.8372 14.948
25.8675 15.208
25.8978 14.062
25.9281 13.958
25.9583 14.948
25.9886 15.104
26.0189 13.958
26.0492 15.260
26.0794 13.958
26.1097 16.354
26.1400 13.385
26.1703 15.260
26.2006 14.896
26.2308 15.104
26.2611 15.833
26.2914 14.635
26.3217 15.885
26.3520 16.615
26.3822 15.781
26.4125 14.479
26.4428 16.302
26.4731 16.875
26.5034 15.208
26.5336 15.365
26.5639 16.250
26.5942 17.031
26.6245 16.615
26.6547 18.385
26.6850 16.927
26.7153 16.771
26.7456 18.385
26.7759 20.052
26.8061 19.271
26.8364 21.302
26.8667 21.406
26.8970 19.323
26.9273 20.260
26.9575 17.917
26.9878 19.583
27.0181 18.750
27.0484 20.156
27.0786 18.542
27.1089 19.740
27.1392 17.448
27.1695 18.750
27.1998 19.740
27.2300 18.958
27.2603 17.917
27.2906 18.906
27.3209 18.021
27.3512 18.854
27.3814 19.583
27.4117 17.656
27.4420 19.583
27.4723 17.448
27.5025 19.479
27.5328 17.031
27.5631 19.479
27.5934 19.010
27.6237 19.687
27.6539 19.219
27.6842 19.896
27.7145 17.552
27.7448 19.740
27.7751 17.760
27.8053 18.281
27.8356 19.792
27.8659 18.490
27.8962 20.208
27.9264 20.729
27.9567 18.958
27.9870 18.542
28.0173 19.219
28.0476 18.333
28.0778 16.667
28.1081 17.448
28.1384 16.406
28.1687 17.812
28.1990 16.042
28.2292 18.177
28.2595 15.885
28.2898 14.740
28.3201 16.927
28.3503 15.104
28.3806 16.302
28.4109 14.844
28.4412 13.802
28.4715 13.594
28.5017 15.104
28.5320 12.865
28.5623 15.729
28.5926 15.312
28.6229 12.812
28.6531 12.917
28.6834 15.000
28.7137 14.115
28.7440 11.094
28.7742 12.135
28.8045 13.385
28.8348 11.875
28.8651 12.031
28.8954 11.302
28.9256 10.833
28.9559 11.146
28.9862 10.208
29.0165 12.812
29.0468 10.365
29.0770 10.365
29.1073 10.312
29.1376 9.635
29.1679 10.000
29.1981 9.323
29.2284 11.146
29.2587 10.521
29.2890 9.583
29.3193 8.073
29.3495 10.052
29.3798 8.594
29.4101 8.437
29.4404 9.375
29.4707 9.115
29.5009 9.219
29.5312 8.490
29.5615 10.365
29.5918 8.021
29.6221 7.760
29.6523 8.385
29.6826 7.344
29.7129 7.708
29.7432 7.552
29.7734 7.760
29.8037 7.396
29.8340 6.094
29.8643 6.771
29.8946 7.604
29.9248 7.604
29.9551 8.333
29.9854 6.406
30.0157 5.990
30.0460 7.031
30.0762 7.708
30.1065 6.667
30.1368 6.406
30.1671 6.979
30.1973 6.771
30.2276 5.312
30.2579 6.771
30.2882 7.135
30.3185 6.198
30.3487 6.979
30.3790 5.781
30.4093 6.979
30.4396 5.677
30.4699 5.781
30.5001 4.740
30.5304 6.354
30.5607 5.625
30.5910 5.625
30.6212 6.510
30.6515 5.573
30.6818 4.896
30.7121 6.302
30.7424 5.677
30.7726 6.146
30.8029 5.365
30.8332 6.146
30.8635 5.677
30.8938 5.885
30.9240 6.406
30.9543 5.417
30.9846 6.146
31.0149 4.948
31.0451 5.990
31.0754 4.635
31.1057 5.312
31.1360 6.719
31.1663 5.417
31.1965 5.781
31.2268 4.427
31.2571 6.458
31.2874 4.740
31.3177 6.042
31.3479 4.583
31.3782 5.417
31.4085 6.771
31.4388 4.323
31.4690 4.896
31.4993 6.510
31.5296 5.260
31.5599 5.312
31.5902 4.427
31.6204 5.000
31.6507 4.948
31.6810 5.573
31.7113 5.104
31.7416 5.156
31.7718 5.156
31.8021 5.260
31.8324 4.635
31.8627 4.375
31.8929 5.104
31.9232 5.677
31.9535 5.365
31.9838 5.208
32.0141 5.312
32.0443 4.740
32.0746 5.781
32.1049 5.469
32.1352 5.365
32.1655 5.156
32.1957 6.302
32.2260 5.365
32.2563 5.573
32.2866 4.792
32.3169 4.896
32.3471 4.740
32.3774 5.469
32.4077 6.094
32.4380 5.729
32.4682 5.469
32.4985 5.052
32.5288 5.365
32.5591 5.677
32.5894 5.833
32.6196 7.708
32.6499 8.750
32.6802 7.083
32.7105 7.708
32.7408 7.812
32.7710 7.448
32.8013 7.396
32.8316 6.354
32.8619 6.719
32.8921 7.083
32.9224 5.260
32.9527 5.990
32.9830 5.104
33.0133 5.781
33.0435 4.948
33.0738 4.271
33.1041 5.729
33.1344 5.573
33.1647 4.896
33.1949 5.052
33.2252 4.948
33.2555 5.469
33.2858 4.323
33.3160 4.323
33.3463 4.427
33.3766 5.156
33.4069 4.740
33.4372 4.323
33.4674 3.906
33.4977 4.323
33.5280 4.740
33.5583 3.594
33.5886 4.531
33.6188 4.167
33.6491 5.156
33.6794 4.062
33.7097 3.906
33.7399 4.271
33.7702 3.906
33.8005 4.687
33.8308 4.583
33.8611 4.531
33.8913 3.750
33.9216 4.323
33.9519 4.062
33.9822 4.219
34.0125 4.219
34.0427 5.417
34.0730 4.323
34.1033 4.219
34.1336 4.792
34.1638 4.010
34.1941 4.792
34.2244 4.427
34.2547 4.375
34.2850 5.469
34.3152 4.271
34.3455 4.792
34.3758 4.531
34.4061 4.687
34.4364 4.583
34.4666 4.844
34.4969 5.156
34.5272 4.375
34.5575 5.521
34.5877 4.844
34.6180 4.687
34.6483 5.990
34.6786 3.854
34.7089 4.375
34.7391 5.573
34.7694 5.521
34.7997 5.312
34.8300 5.312
34.8603 5.573
34.8905 5.885
34.9208 4.792
34.9511 5.469
34.9814 6.979
35.0116 4.635
35.0419 5.000
35.0722 4.792
35.1025 5.260
35.1328 5.365
35.1630 5.052
35.1933 4.219
35.2236 4.635
35.2539 5.052
35.2842 3.854
35.3144 4.687
35.3447 4.583
35.3750 5.156
35.4053 5.000
35.4356 5.990
35.4658 5.312
35.4961 4.740
35.5264 5.885
35.5567 4.427
35.5869 4.740
35.6172 5.260
35.6475 4.792
35.6778 4.792
35.7081 5.104
35.7383 5.260
35.7686 5.052
35.7989 5.990
35.8292 5.677
35.8595 5.104
35.8897 4.687
35.9200 4.010
35.9503 4.635
35.9806 4.479
36.0108 3.958
36.0411 5.469
36.0714 4.427
36.1017 5.312
36.1320 5.260
36.1622 4.948
36.1925 4.635
36.2228 4.896
36.2531 4.323
36.2834 5.000
36.3136 4.271
36.3439 4.167
36.3742 4.896
36.4045 4.687
36.4347 3.646
36.4650 4.010
36.4953 3.594
36.5256 3.542
36.5559 3.906
36.5861 4.323
36.6164 3.958
36.6467 5.312
36.6770 3.802
36.7073 3.906
36.7375 3.698
36.7678 4.583
36.7981 4.115
36.8284 4.479
36.8586 4.062
36.8889 4.479
36.9192 4.271
36.9495 3.594
36.9798 4.219
37.0100 4.635
37.0403 3.437
37.0706 3.802
37.1009 4.271
37.1312 4.323
37.1614 3.906
37.1917 3.854
37.2220 4.167
37.2523 3.698
37.2825 3.750
37.3128 4.115
37.3431 3.906
37.3734 4.323
37.4037 3.646
37.4339 3.958
37.4642 4.271
37.4945 3.906
37.5248 4.167
37.5551 3.854
37.5853 4.635
37.6156 4.687
37.6459 4.271
37.6762 4.271
37.7064 4.219
37.7367 4.375
37.7670 3.906
37.7973 3.646
37.8276 4.115
37.8578 4.010
37.8881 4.115
37.9184 3.958
37.9487 4.219
37.9790 4.375
38.0092 4.219
38.0395 3.906
38.0698 3.906
38.1001 4.323
38.1304 3.906
38.1606 3.594
38.1909 4.323
38.2212 4.687
38.2515 4.583
38.2817 3.125
38.3120 4.479
38.3423 4.062
38.3726 3.906
38.4029 4.427
38.4331 3.750
38.4634 3.490
38.4937 3.333
38.5240 3.542
38.5543 3.177
38.5845 4.115
38.6148 3.958
38.6451 3.646
38.6754 4.635
38.7056 2.760
38.7359 2.917
38.7662 2.969
38.7965 3.542
38.8268 2.969
38.8570 3.177
38.8873 2.969
38.9176 3.125
38.9479 3.750
38.9782 3.281
39.0084 3.437
39.0387 3.177
39.0690 4.219
39.0993 3.854
39.1295 3.333
39.1598 3.073
39.1901 3.021
39.2204 3.646
39.2507 3.490
39.2809 2.552
39.3112 3.437
39.3415 3.385
39.3718 2.708
39.4021 2.604
39.4323 2.917
39.4626 3.385
39.4929 2.917
39.5232 3.802
39.5534 3.177
39.5837 3.385
39.6140 2.812
39.6443 3.125
39.6746 2.969
39.7048 2.500
39.7351 3.958
39.7654 2.240
39.7957 3.750
39.8260 2.708
39.8562 3.281
39.8865 2.708
39.9168 2.865
39.9471 3.854
39.9773 2.865
40.0076 2.708
40.0379 2.292
40.0682 3.333
40.0985 3.073
40.1287 2.500
40.1590 2.812
40.1893 2.812
40.2196 3.490
40.2499 3.125
40.2801 3.854
40.3104 3.073
40.3407 2.552
40.3710 3.281
40.4012 3.490
40.4315 3.125
40.4618 3.333
40.4921 2.969
40.5224 2.865
40.5526 3.125
40.5829 2.760
40.6132 2.812
40.6435 3.125
40.6738 2.552
40.7040 2.865
40.7343 3.125
40.7646 3.437
40.7949 3.542
40.8251 3.021
40.8554 3.594
40.8857 3.750
40.9160 3.750
40.9463 2.917
40.9765 3.437
41.0068 3.802
41.0371 3.490
41.0674 2.917
41.0977 3.229
41.1279 3.646
41.1582 3.594
41.1885 3.958
41.2188 3.594
41.2491 2.448
41.2793 2.500
41.3096 3.437
41.3399 1.667
41.3702 3.021
41.4004 2.448
41.4307 2.812
41.4610 3.542
41.4913 3.333
41.5216 3.542
41.5518 3.073
41.5821 2.812
41.6124 3.021
41.6427 2.708
41.6730 3.385
41.7032 2.917
41.7335 2.708
41.7638 3.281
41.7941 3.385
41.8243 3.021
41.8546 2.812
41.8849 2.917
41.9152 2.812
41.9455 3.021
41.9757 2.396
42.0060 3.281
42.0363 3.125
42.0666 2.865
42.0969 3.125
42.1271 2.604
42.1574 2.917
42.1877 3.906
42.2180 2.708
42.2482 3.698
42.2785 3.177
42.3088 2.187
42.3391 3.229
42.3694 2.656
42.3996 3.229
42.4299 2.292
42.4602 2.917
42.4905 2.812
42.5208 2.656
42.5510 2.917
42.5813 2.812
42.6116 2.812
42.6419 3.177
42.6721 2.031
42.7024 3.073
42.7327 2.760
42.7630 3.125
42.7933 3.021
42.8235 2.500
42.8538 3.229
42.8841 2.448
42.9144 2.396
42.9447 2.552
42.9749 2.448
43.0052 1.979
43.0355 3.177
43.0658 1.562
43.0960 3.021
43.1263 2.396
43.1566 2.812
43.1869 2.865
43.2172 2.865
43.2474 3.125
43.2777 2.604
43.3080 2.083
43.3383 2.344
43.3686 3.021
43.3988 2.760
43.4291 2.552
43.4594 2.083
43.4897 2.552
43.5199 3.333
43.5502 2.344
43.5805 3.073
43.6108 1.979
43.6411 2.708
43.6713 2.135
43.7016 2.865
43.7319 2.083
43.7622 3.542
43.7925 2.396
43.8227 2.448
43.8530 2.500
43.8833 2.812
43.9136 2.500
43.9439 2.865
43.9741 2.969
44.0044 2.552
44.0347 2.448
44.0650 2.917
44.0952 3.021
44.1255 2.917
44.1558 2.708
44.1861 2.760
44.2164 1.719
44.2466 2.396
44.2769 2.240
44.3072 2.396
44.3375 2.135
44.3678 2.396
44.3980 2.135
44.4283 2.187
44.4586 2.083
44.4889 2.708
44.5191 2.500
44.5494 2.083
44.5797 2.083
44.6100 2.708
44.6403 3.021
44.6705 2.969
44.7008 2.396
44.7311 2.500
44.7614 2.656
44.7917 2.865
44.8219 2.708
44.8522 2.969
44.8825 3.073
44.9128 2.500
44.9430 2.448
44.9733 2.240
45.0036 2.708
45.0339 2.708
45.0642 2.604
45.0944 2.969
45.1247 2.292
45.1550 2.760
45.1853 2.969
45.2156 2.187
45.2458 3.385
45.2761 2.917
45.3064 3.021
45.3367 1.979
45.3669 2.500
45.3972 2.396
45.4275 2.552
45.4578 1.823
45.4881 3.177
45.5183 2.812
45.5486 2.865
45.5789 2.656
45.6092 2.604
45.6395 2.969
45.6697 3.021
45.7000 3.073
45.7303 2.917
45.7606 2.083
45.7908 2.708
45.8211 2.604
45.8514 2.708
45.8817 2.396
45.9120 2.448
45.9422 2.083
45.9725 2.969
46.0028 2.812
46.0331 2.708
46.0634 2.604
46.0936 3.073
46.1239 2.396
46.1542 2.344
46.1845 2.448
46.2147 2.448
46.2450 2.604
46.2753 2.760
46.3056 2.865
46.3359 3.125
46.3661 2.552
46.3964 2.292
46.4267 1.510
46.4570 2.448
46.4873 2.604
46.5175 2.812
46.5478 2.917
46.5781 2.344
46.6084 2.656
46.6386 2.708
46.6689 2.604
46.6992 3.073
46.7295 2.500
46.7598 3.177
46.7900 2.500
46.8203 2.344
46.8506 3.021
46.8809 2.448
46.9112 2.969
46.9414 2.760
46.9717 2.604
47.0020 3.125
47.0323 2.708
47.0626 2.656
47.0928 2.448
47.1231 2.760
47.1534 1.875
47.1837 3.073
47.2139 3.958
47.2442 2.865
47.2745 2.448
47.3048 3.490
47.3351 2.969
47.3653 2.448
47.3956 2.865
47.4259 2.708
47.4562 2.708
47.4865 2.500
47.5167 2.865
47.5470 3.437
47.5773 2.292
47.6076 2.917
47.6378 3.437
47.6681 2.552
47.6984 3.490
47.7287 2.812
47.7590 3.490
47.7892 3.333
47.8195 3.385
47.8498 3.073
47.8801 3.802
47.9104 3.542
47.9406 3.854
47.9709 4.219
48.0012 3.750
48.0315 2.917
48.0617 3.281
48.0920 3.333
48.1223 2.969
48.1526 3.125
48.1829 3.125
48.2131 3.177
48.2434 3.802
48.2737 3.437
48.3040 3.958
48.3343 4.167
48.3645 3.802
48.3948 3.750
48.4251 4.010
48.4554 4.219
48.4856 3.594
48.5159 4.323
48.5462 3.854
48.5765 4.115
48.6068 4.271
48.6370 3.802
48.6673 4.062
48.6976 4.219
48.7279 4.427
48.7582 4.062
48.7884 5.260
48.8187 3.854
48.8490 3.906
48.8793 4.062
48.9095 4.531
48.9398 4.427
48.9701 5.417
49.0004 4.167
49.0307 4.635
49.0609 3.958
49.0912 4.687
49.1215 4.844
49.1518 4.375
49.1821 3.906
49.2123 4.167
49.2426 3.958
49.2729 4.271
49.3032 4.323
49.3334 4.323
49.3637 4.167
49.3940 4.583
49.4243 5.990
49.4546 4.531
49.4848 5.521
49.5151 4.948
49.5454 5.156
49.5757 4.427
49.6060 5.781
49.6362 4.740
49.6665 4.896
49.6968 5.000
49.7271 4.844
49.7574 4.219
49.7876 4.375
49.8179 5.573
49.8482 4.948
49.8785 4.687
49.9087 4.583
49.9390 4.219
49.9693 4.271
49.9996 5.104
50.0299 5.208
50.0601 5.417
50.0904 5.469
50.1207 5.833
50.1510 5.885
50.1813 4.948
50.2115 5.990
50.2418 5.208
50.2721 5.469
50.3024 5.729
50.3326 6.615
50.3629 5.417
50.3932 6.094
50.4235 7.969
50.4538 4.792
50.4840 5.937
50.5143 5.990
50.5446 5.625
50.5749 5.625
50.6052 6.146
50.6354 6.510
50.6657 6.615
50.6960 6.198
50.7263 5.781
50.7565 5.833
50.7868 5.417
50.8171 5.312
50.8474 5.052
50.8777 5.885
50.9079 5.312
50.9382 5.885
50.9685 6.875
50.9988 5.677
51.0291 6.250
51.0593 5.677
51.0896 5.625
51.1199 5.677
51.1502 5.625
51.1804 5.417
51.2107 6.719
51.2410 5.417
51.2713 5.781
51.3016 6.146
51.3318 5.417
51.3621 5.729
51.3924 5.885
51.4227 5.885
51.4530 6.094
51.4832 5.937
51.5135 5.677
51.5438 5.417
51.5741 6.562
51.6043 5.469
51.6346 5.104
51.6649 5.000
51.6952 5.729
51.7255 5.990
51.7557 5.156
51.7860 5.260
51.8163 5.260
51.8466 5.156
51.8769 4.635
51.9071 5.937
51.9374 4.323
51.9677 5.521
51.9980 5.052
52.0282 5.208
52.0585 4.740
52.0888 5.990
52.1191 5.417
52.1494 4.167
52.1796 4.792
52.2099 4.375
52.2402 3.906
52.2705 4.062
52.3008 4.010
52.3310 5.156
52.3613 4.323
52.3916 4.792
52.4219 5.052
52.4521 4.948
52.4824 4.115
52.5127 5.000
52.5430 4.010
52.5733 4.167
52.6035 3.437
52.6338 5.208
52.6641 4.948
52.6944 4.531
52.7247 4.167
52.7549 4.427
52.7852 4.271
52.8155 4.583
52.8458 3.854
52.8761 3.958
52.9063 4.531
52.9366 4.167
52.9669 4.635
52.9972 4.635
53.0274 4.740
53.0577 3.802
53.0880 4.427
53.1183 4.062
53.1486 4.323
53.1788 4.583
53.2091 3.177
53.2394 4.427
53.2697 3.958
53.3000 3.802
53.3302 4.062
53.3605 4.479
53.3908 4.010
53.4211 3.958
53.4513 4.531
53.4816 4.010
53.5119 3.437
53.5422 3.906
53.5725 3.542
53.6027 5.052
53.6330 4.010
53.6633 3.125
53.6936 4.115
53.7239 4.531
53.7541 3.906
53.7844 3.750
53.8147 4.062
53.8450 3.021
53.8752 4.427
53.9055 4.010
53.9358 3.542
53.9661 4.010
53.9964 3.385
54.0266 4.635
54.0569 3.802
54.0872 4.531
54.1175 3.125
54.1478 4.792
54.1780 3.646
54.2083 3.177
54.2386 3.958
54.2689 3.802
54.2991 3.177
54.3294 2.917
54.3597 3.594
54.3900 3.958
54.4203 3.906
54.4505 3.281
54.4808 3.750
54.5111 4.010
54.5414 3.906
54.5717 3.333
54.6019 4.115
54.6322 3.021
54.6625 2.500
54.6928 4.375
54.7230 3.594
54.7533 3.646
54.7836 3.281
54.8139 2.656
54.8442 4.115
54.8744 3.542
54.9047 3.333
54.9350 3.229
54.9653 3.281
54.9956 3.958
55.0258 3.021
55.0561 3.229
55.0864 2.917
55.1167 3.385
55.1469 3.542
55.1772 3.333
55.2075 3.385
55.2378 3.333
55.2681 2.708
55.2983 3.802
55.3286 3.073
55.3589 3.698
55.3892 2.917
55.4195 3.229
55.4497 3.854
55.4800 3.698
55.5103 3.698
55.5406 2.656
55.5709 3.333
55.6011 2.448
55.6314 3.490
55.6617 3.802
55.6920 3.125
55.7222 3.229
55.7525 3.073
55.7828 3.125
55.8131 2.969
55.8434 3.802
55.8736 3.073
55.9039 3.177
55.9342 2.760
55.9645 3.854
55.9948 2.812
56.0250 3.281
56.0553 3.281
56.0856 3.021
56.1159 3.177
56.1461 3.281
56.1764 3.125
56.2067 3.125
56.2370 3.229
56.2673 3.125
56.2975 3.021
56.3278 3.125
56.3581 3.021
56.3884 2.760
56.4187 2.812
56.4489 3.437
56.4792 3.021
56.5095 2.865
56.5398 2.760
56.5700 2.396
56.6003 2.708
56.6306 2.969
56.6609 2.552
56.6912 2.500
56.7214 3.177
56.7517 2.865
56.7820 2.969
56.8123 2.969
56.8426 2.969
56.8728 3.073
56.9031 2.552
56.9334 3.125
56.9637 2.760
56.9939 2.656
57.0242 2.552
57.0545 2.396
57.0848 2.135
57.1151 2.656
57.1453 2.917
57.1756 2.865
57.2059 2.552
57.2362 3.229
57.2665 2.292
57.2967 2.396
57.3270 2.500
57.3573 2.604
57.3876 2.708
57.4178 2.604
57.4481 2.760
57.4784 3.490
57.5087 3.021
57.5390 2.917
57.5692 2.500
57.5995 1.875
57.6298 2.187
57.6601 3.229
57.6904 2.448
57.7206 2.812
57.7509 2.448
57.7812 2.240
57.8115 2.344
57.8417 2.552
57.8720 2.031
57.9023 2.240
57.9326 2.917
57.9629 2.083
57.9931 2.865
58.0234 3.125
58.0537 2.760
58.0840 2.500
58.1143 3.073
58.1445 3.229
58.1748 3.437
58.2051 3.437
58.2354 2.865
58.2656 3.177
58.2959 2.969
58.3262 3.177
58.3565 3.490
58.3868 2.760
58.4170 3.281
58.4473 3.333
58.4776 3.229
58.5079 2.708
58.5382 3.229
58.5684 3.490
58.5987 4.427
58.6290 3.281
58.6593 3.542
58.6896 3.490
58.7198 2.812
58.7501 3.437
58.7804 3.437
58.8107 3.646
58.8409 3.073
58.8712 3.073
58.9015 3.542
58.9318 3.021
58.9621 3.646
58.9923 2.187
59.0226 2.344
59.0529 3.333
59.0832 3.229
59.1135 3.385
59.1437 3.333
59.1740 3.698
59.2043 2.604
59.2346 3.594
59.2648 2.760
59.2951 2.760
59.3254 2.552
59.3557 3.125
59.3860 3.437
59.4162 3.125
59.4465 3.385
59.4768 3.385
59.5071 3.333
59.5374 3.958
59.5676 3.594
59.5979 2.917
59.6282 2.760
59.6585 2.969
59.6887 3.281
59.7190 3.385
59.7493 3.333
59.7796 2.812
59.8099 3.073
59.8401 3.750
59.8704 3.333
59.9007 2.917
59.9310 3.333
59.9613 3.073
59.9915 3.177
60.0218 3.073
60.0521 3.958
60.0824 3.490
60.1126 3.490
60.1429 2.969
60.1732 3.229
60.2035 4.219
60.2338 2.500
60.2640 3.021
60.2943 3.750
60.3246 2.865
60.3549 3.542
60.3852 3.698
60.4154 3.281
60.4457 3.021
60.4760 3.385
60.5063 3.437
60.5365 2.500
60.5668 2.552
60.5971 2.708
60.6274 3.281
60.6577 3.281
60.6879 2.812
60.7182 3.594
60.7485 2.552
60.7788 2.344
60.8091 2.292
60.8393 3.229
60.8696 3.125
60.8999 2.969
60.9302 2.865
60.9604 2.448
60.9907 3.021
61.0210 2.969
61.0513 2.448
61.0816 2.604
61.1118 3.229
61.1421 2.656
61.1724 3.854
61.2027 3.073
61.2330 2.760
61.2632 2.292
61.2935 2.917
61.3238 3.073
61.3541 2.917
61.3844 2.917
61.4146 3.125
61.4449 2.708
61.4752 2.760
61.5055 2.500
61.5357 3.750
61.5660 3.802
61.5963 3.542
61.6266 3.073
61.6569 3.073
61.6871 2.917
61.7174 3.281
61.7477 3.385
61.7780 2.552
61.8083 3.333
61.8385 3.958
61.8688 3.125
61.8991 2.708
61.9294 3.125
61.9596 3.177
61.9899 3.229
62.0202 3.385
62.0505 3.698
62.0808 3.281
62.1110 3.594
62.1413 3.333
62.1716 3.854
62.2019 3.073
62.2322 3.073
62.2624 3.437
62.2927 3.490
62.3230 4.271
62.3533 3.177
62.3835 3.281
62.4138 3.594
62.4441 4.323
62.4744 3.906
62.5047 3.177
62.5349 3.594
62.5652 3.281
62.5955 3.281
62.6258 3.333
62.6561 3.594
62.6863 3.021
62.7166 3.854
62.7469 3.229
62.7772 3.542
62.8074 3.177
62.8377 4.271
62.8680 3.229
62.8983 2.917
62.9286 4.062
62.9588 3.646
62.9891 3.490
63.0194 3.750
63.0497 3.542
63.0800 3.698
63.1102 3.437
63.1405 3.698
63.1708 3.125
63.2011 3.646
63.2313 3.229
63.2616 3.490
63.2919 3.750
63.3222 3.594
63.3525 4.062
63.3827 3.385
63.4130 3.229
63.4433 3.281
63.4736 3.698
63.5039 3.073
63.5341 3.437
63.5644 2.917
63.5947 3.021
63.6250 4.062
63.6552 3.229
63.6855 3.802
63.7158 2.865
63.7461 3.698
63.7764 3.125
63.8066 3.125
63.8369 3.333
63.8672 2.865
63.8975 3.698
63.9278 2.760
63.9580 3.750
63.9883 2.760
64.0186 3.698
64.0489 3.281
64.0791 3.281
64.1094 3.490
64.1397 3.594
64.1700 3.542
64.2003 3.229
64.2305 3.281
64.2608 2.760
64.2911 3.177
64.3214 2.865
64.3517 3.437
64.3819 3.073
64.4122 2.708
64.4425 3.125
64.4728 2.396
64.5031 2.396
64.5333 2.865
64.5636 1.927
64.5939 2.396
64.6242 2.656
64.6544 3.021
64.6847 2.240
64.7150 2.865
64.7453 3.229
64.7756 3.125
64.8058 2.187
64.8361 2.604
64.8664 2.240
64.8967 2.917
64.9270 2.135
64.9572 2.187
64.9875 2.917
65.0178 2.604
65.0481 1.458
65.0783 2.917
65.1086 2.135
65.1389 2.240
65.1692 3.021
65.1995 2.135
65.2297 2.552
65.2600 2.448
65.2903 2.812
65.3206 2.552
65.3509 1.875
65.3811 2.292
65.4114 2.552
65.4417 2.396
65.4720 2.604
65.5022 2.604
65.5325 1.510
65.5628 2.552
65.5931 1.667
65.6234 2.292
65.6536 2.604
65.6839 2.448
65.7142 1.927
65.7445 1.875
65.7748 1.979
65.8050 2.135
65.8353 1.562
65.8656 2.187
65.8959 2.240
65.9261 2.031
65.9564 1.823
65.9867 1.615
66.0170 2.083
66.0473 2.031
66.0775 2.135
66.1078 1.406
66.1381 1.875
66.1684 1.979
66.1987 1.771
66.2289 1.615
66.2592 2.135
66.2895 1.875
66.3198 2.969
66.3500 1.719
66.3803 2.344
66.4106 2.135
66.4409 2.604
66.4712 1.927
66.5014 2.240
66.5317 2.031
66.5620 1.875
66.5923 1.562
66.6226 2.604
66.6528 2.031
66.6831 2.031
66.7134 2.083
66.7437 1.927
66.7739 1.875
66.8042 1.615
66.8345 2.344
66.8648 1.823
66.8951 2.292
66.9253 2.396
66.9556 1.615
66.9859 1.771
67.0162 2.396
67.0465 1.823
67.0767 2.083
67.1070 1.927
67.1373 1.771
67.1676 2.031
67.1978 1.562
67.2281 2.135
67.2584 1.719
67.2887 1.458
67.3190 1.615
67.3492 2.031
67.3795 2.187
67.4098 2.083
67.4401 1.771
67.4704 2.187
67.5006 1.875
67.5309 2.552
67.5612 1.979
67.5915 1.823
67.6218 1.823
67.6520 1.719
67.6823 1.302
67.7126 1.510
67.7429 1.719
67.7731 1.927
67.8034 2.135
67.8337 1.927
67.8640 1.927
67.8943 1.823
67.9245 1.510
67.9548 1.823
67.9851 2.083
68.0154 2.344
68.0457 1.354
68.0759 1.927
68.1062 1.354
68.1365 1.510
68.1668 2.031
68.1970 1.927
68.2273 2.240
68.2576 1.719
68.2879 1.667
68.3182 2.552
68.3484 1.927
68.3787 1.667
68.4090 1.771
68.4393 1.771
68.4696 1.875
68.4998 1.823
68.5301 1.406
68.5604 1.875
68.5907 1.927
68.6209 1.823
68.6512 1.510
68.6815 1.979
68.7118 1.615
68.7421 1.719
68.7723 2.135
68.8026 1.771
68.8329 2.083
68.8632 2.917
68.8935 2.083
68.9237 2.187
68.9540 1.667
68.9843 2.448
69.0146 1.979
69.0448 1.979
69.0751 2.240
69.1054 2.135
69.1357 1.406
69.1660 1.979
69.1962 1.927
69.2265 2.083
69.2568 2.656
69.2871 1.719
69.3174 2.031
69.3476 2.083
69.3779 1.823
69.4082 2.292
69.4385 2.344
69.4687 1.615
69.4990 1.979
69.5293 2.292
69.5596 1.979
69.5899 1.771
69.6201 2.135
69.6504 1.667
69.6807 2.240
69.7110 2.812
69.7413 2.448
69.7715 2.031
69.8018 2.240
69.8321 1.875
69.8624 2.396
69.8926 1.927
69.9229 1.667
69.9532 2.500
69.9835 1.979
70.0138 1.771
70.0440 2.135
70.0743 2.292
70.1046 1.927
70.1349 2.552
70.1652 1.615
70.1954 1.927
70.2257 2.187
70.2560 2.656
70.2863 1.562
70.3166 2.292
70.3468 2.135
70.3771 1.927
70.4074 1.771
70.4377 2.031
70.4679 2.292
70.4982 1.875
70.5285 1.719
70.5588 1.823
70.5891 1.823
70.6193 1.979
70.6496 1.927
70.6799 1.771
70.7102 2.240
70.7405 1.979
70.7707 1.615
70.8010 1.667
70.8313 1.771
70.8616 1.823
70.8918 2.292
70.9221 1.250
70.9524 1.875
70.9827 2.187
71.0130 1.667
71.0432 1.979
71.0735 2.031
71.1038 1.771
71.1341 1.562
71.1644 2.031
71.1946 1.510
71.2249 1.510
71.2552 2.135
71.2855 1.771
71.3157 1.406
71.3460 1.719
71.3763 1.823
71.4066 1.458
71.4369 1.771
71.4671 2.135
71.4974 1.458
71.5277 1.875
71.5580 1.615
71.5883 2.292
71.6185 2.031
71.6488 1.510
71.6791 1.354
71.7094 1.510
71.7396 1.771
71.7699 1.927
71.8002 1.875
71.8305 2.448
71.8608 1.667
71.8910 2.031
71.9213 1.510
71.9516 1.771
71.9819 1.771
72.0122 1.406
72.0424 1.927
72.0727 1.458
72.1030 1.510
72.1333 2.187
72.1635 1.719
72.1938 2.135
72.2241 1.458
72.2544 1.146
72.2847 2.448
72.3149 1.510
72.3452 1.823
72.3755 1.719
72.4058 1.875
72.4361 1.719
72.4663 1.562
72.4966 1.823
72.5269 1.719
72.5572 1.562
72.5874 2.135
72.6177 2.448
72.6480 2.240
72.6783 1.927
72.7086 1.562
72.7388 1.667
72.7691 1.719
72.7994 1.354
72.8297 2.292
72.8600 1.823
72.8902 2.031
72.9205 2.240
72.9508 1.719
72.9811 1.458
73.0113 1.823
73.0416 1.979
73.0719 2.396
73.1022 2.135
73.1325 1.927
73.1627 2.031
73.1930 2.240
73.2233 2.187
73.2536 2.083
73.2839 2.344
73.3141 1.823
73.3444 1.719
73.3747 1.979
73.4050 1.719
73.4353 1.875
73.4655 1.771
73.4958 2.760
73.5261 1.719
73.5564 2.240
73.5866 1.562
73.6169 2.240
73.6472 1.667
73.6775 1.406
73.7078 1.354
73.7380 1.458
73.7683 1.354
73.7986 2.083
73.8289 1.979
73.8592 1.875
73.8894 1.875
73.9197 1.354
73.9500 2.135
73.9803 2.187
74.0105 1.562
74.0408 2.031
74.0711 2.396
74.1014 1.615
74.1317 2.031
74.1619 1.615
74.1922 2.292
74.2225 1.979
74.2528 1.927
74.2831 2.500
74.3133 1.719
74.3436 1.979
74.3739 1.562
74.4042 2.240
74.4344 1.771
74.4647 1.719
74.4950 2.448
74.5253 2.083
74.5556 1.979
74.5858 2.344
74.6161 1.979
74.6464 2.500
74.6767 2.656
74.7070 1.979
74.7372 1.198
74.7675 1.354
74.7978 1.615
74.8281 1.979
74.8583 2.448
74.8886 1.875
74.9189 1.719
74.9492 2.083
74.9795 1.979
75.0097 2.240
75.0400 1.510
75.0703 2.240
75.1006 2.552
75.1309 1.562
75.1611 2.292
75.1914 1.198
75.2217 1.875
75.2520 1.458
75.2822 2.760
75.3125 2.135
75.3428 1.927
75.3731 2.187
75.4034 1.510
75.4336 1.354
75.4639 1.458
75.4942 2.344
75.5245 1.719
75.5548 1.667
75.5850 1.823
75.6153 1.615
75.6456 1.458
75.6759 1.979
75.7061 1.667
75.7364 2.083
75.7667 1.510
75.7970 1.562
75.8273 2.031
75.8575 1.562
75.8878 1.771
75.9181 2.187
75.9484 1.823
75.9787 1.667
76.0089 1.927
76.0392 2.083
76.0695 1.979
76.0998 1.615
76.1301 2.083
76.1603 2.187
76.1906 1.875
76.2209 1.771
76.2512 1.823
76.2814 1.719
76.3117 1.146
76.3420 1.667
76.3723 2.187
76.4026 2.031
76.4328 1.719
76.4631 2.083
76.4934 1.667
76.5237 1.354
76.5540 1.927
76.5842 1.771
76.6145 2.187
76.6448 2.187
76.6751 1.510
76.7053 1.510
76.7356 1.771
76.7659 1.354
76.7962 1.354
76.8265 1.510
76.8567 1.719
76.8870 1.562
76.9173 2.396
76.9476 2.031
76.9779 1.667
77.0081 1.927
77.0384 1.823
77.0687 1.719
77.0990 1.771
77.1292 1.823
77.1595 1.198
77.1898 2.344
77.2201 1.458
77.2504 1.667
77.2806 1.927
77.3109 1.771
77.3412 1.510
77.3715 1.615
77.4018 1.562
77.4320 2.031
77.4623 1.458
77.4926 1.198
77.5229 1.875
77.5531 1.823
77.5834 1.406
77.6137 2.135
77.6440 1.354
77.6743 1.562
77.7045 1.615
77.7348 1.719
77.7651 1.667
77.7954 1.875
77.8257 1.510
77.8559 1.667
77.8862 1.302
77.9165 1.667
77.9468 1.406
77.9770 1.250
78.0073 1.667
78.0376 1.927
78.0679 1.615
78.0982 1.562
78.1284 1.979
78.1587 1.875
78.1890 1.667
78.2193 1.562
78.2496 1.927
78.2798 1.042
78.3101 1.510
78.3404 1.406
78.3707 1.354
78.4009 1.510
78.4312 1.615
78.4615 1.510
78.4918 1.250
78.5221 1.667
78.5523 2.135
78.5826 1.354
78.6129 1.719
78.6432 1.354
78.6735 1.354
78.7037 1.823
78.7340 1.458
78.7643 2.135
78.7946 1.406
78.8248 1.510
78.8551 2.083
78.8854 1.875
78.9157 1.771
78.9460 1.198
78.9762 1.875
79.0065 1.510
79.0368 1.667
79.0671 1.302
79.0974 1.771
79.1276 1.875
79.1579 1.719
79.1882 1.667
79.2185 2.135
79.2488 2.135
79.2790 1.771
79.3093 1.667
79.3396 1.406
79.3699 1.354
79.4001 1.406
79.4304 1.198
79.4607 1.458
79.4910 1.250
79.5213 1.823
79.5515 1.875
79.5818 1.667
79.6121 1.875
79.6424 1.667
79.6727 2.135
79.7029 1.302
79.7332 2.083
79.7635 1.458
79.7938 1.406
79.8240 1.667
79.8543 1.667
79.8846 1.823
79.9149 1.302
79.9452 2.187
79.9754 1.458
80.0057 1.146
80.0360 1.771
80.0663 1.771
80.0966 1.458
80.1268 2.448
80.1571 1.458
80.1874 1.510
80.2177 1.510
80.2479 1.823
80.2782 1.302
80.3085 2.292
80.3388 1.354
80.3691 1.198
80.3993 1.667
80.4296 1.875
80.4599 1.927
80.4902 1.562
80.5205 2.292
80.5507 1.458
80.5810 2.031
80.6113 2.031
80.6416 1.823
80.6718 2.240
80.7021 1.406
80.7324 2.187
80.7627 1.615
80.7930 1.823
80.8232 1.771
80.8535 1.927
80.8838 1.667
80.9141 1.667
80.9444 2.604
80.9746 1.406
81.0049 1.562
81.0352 0.990
81.0655 1.719
81.0957 1.250
81.1260 1.927
81.1563 1.458
81.1866 1.927
81.2169 1.615
81.2471 1.719
81.2774 1.823
81.3077 1.667
81.3380 1.406
81.3683 1.875
81.3985 1.667
81.4288 2.135
81.4591 1.771
81.4894 2.604
81.5196 1.562
81.5499 2.135
81.5802 1.354
81.6105 2.031
81.6408 1.250
81.6710 1.458
81.7013 1.875
81.7316 1.719
81.7619 1.719
81.7922 1.823
81.8224 1.458
81.8527 1.354
81.8830 1.667
81.9133 1.771
81.9436 2.240
81.9738 1.667
82.0041 2.083
82.0344 1.927
82.0647 1.823
82.0949 1.510
82.1252 1.302
82.1555 1.667
82.1858 1.510
82.2161 1.667
82.2463 1.667
82.2766 1.198
82.3069 1.875
82.3372 2.500
82.3675 2.187
82.3977 1.719
82.4280 1.875
82.4583 1.667
82.4886 1.354
82.5188 1.302
82.5491 1.510
82.5794 1.823
82.6097 1.302
82.6400 1.667
82.6702 2.135
82.7005 2.083
82.7308 1.719
82.7611 1.719
82.7914 1.250
82.8216 1.667
82.8519 1.667
82.8822 2.240
82.9125 1.875
82.9427 1.771
82.9730 1.354
83.0033 1.719
83.0336 1.406
83.0639 1.615
83.0941 2.083
83.1244 2.031
83.1547 1.875
83.1850 1.823
83.2153 1.406
83.2455 1.719
83.2758 1.146
83.3061 2.344
83.3364 1.146
83.3666 1.042
83.3969 2.135
83.4272 1.615
83.4575 1.719
83.4878 1.771
83.5180 1.615
83.5483 1.667
83.5786 1.615
83.6089 2.240
83.6392 1.771
83.6694 1.510
83.6997 1.667
83.7300 2.396
83.7603 1.667
83.7905 1.302
83.8208 1.719
83.8511 1.771
83.8814 1.979
83.9117 1.250
83.9419 2.135
83.9722 1.146
84.0025 1.719
84.0328 1.094
84.0631 1.667
84.0933 1.406
84.1236 1.562
84.1539 2.031
84.1842 1.562
84.2144 1.094
84.2447 1.458
84.2750 1.719
84.3053 1.302
84.3356 1.875
84.3658 1.927
84.3961 1.719
84.4264 1.615
84.4567 1.146
84.4870 1.406
84.5172 1.927
84.5475 1.719
84.5778 1.667
84.6081 1.875
84.6383 1.719
84.6686 1.667
84.6989 1.406
84.7292 1.615
84.7595 2.031
84.7897 1.823
84.8200 1.667
84.8503 1.667
84.8806 1.562
84.9109 1.719
84.9411 1.354
84.9714 2.135
85.0017 1.719
85.0320 1.979
85.0623 1.562
85.0925 2.187
85.1228 1.458
85.1531 1.510
85.1834 1.667
85.2136 1.198
85.2439 1.667
85.2742 1.510
85.3045 1.667
85.3348 1.823
85.3650 1.823
85.3953 1.406
85.4256 1.562
85.4559 1.979
85.4862 1.562
85.5164 2.187
85.5467 2.031
85.5770 1.875
85.6073 1.719
85.6375 1.406
85.6678 1.302
85.6981 1.875
85.7284 1.354
85.7587 1.562
85.7889 1.979
85.8192 2.240
85.8495 1.771
85.8798 1.667
85.9101 1.094
85.9403 1.667
85.9706 1.406
86.0009 1.562
86.0312 1.510
86.0614 1.875
86.0917 1.458
86.1220 1.406
86.1523 1.979
86.1826 1.667
86.2128 1.875
86.2431 1.562
86.2734 1.823
86.3037 1.458
86.3340 1.615
86.3642 0.885
86.3945 1.198
86.4248 1.927
86.4551 1.979
86.4853 1.302
86.5156 1.667
86.5459 1.823
86.5762 1.198
86.6065 1.250
86.6367 1.615
86.6670 1.979
86.6973 1.354
86.7276 1.823
86.7579 1.823
86.7881 2.031
86.8184 1.719
86.8487 1.927
86.8790 1.927
86.9092 1.823
86.9395 2.031
86.9698 1.354
87.0001 2.292
87.0304 1.667
87.0606 1.927
87.0909 1.250
87.1212 1.667
87.1515 1.510
87.1818 1.979
87.2120 1.250
87.2423 1.667
87.2726 1.510
87.3029 1.667
87.3331 2.135
87.3634 1.198
87.3937 1.458
87.4240 1.510
87.4543 1.979
87.4845 1.615
87.5148 2.031
87.5451 1.302
87.5754 1.667
87.6057 1.146
87.6359 1.771
87.6662 1.406
87.6965 1.667
87.7268 1.667
87.7571 1.562
87.7873 0.833
87.8176 2.135
87.8479 1.562
87.8782 1.562
87.9084 1.562
87.9387 1.719
87.9690 1.302
87.9993 1.875
88.0296 1.510
88.0598 1.615
88.0901 1.667
88.1204 1.875
88.1507 1.094
88.1810 1.146
88.2112 1.198
88.2415 0.937
88.2718 2.083
88.3021 1.198
88.3323 1.875
88.3626 2.083
88.3929 1.667
88.4232 2.240
88.4535 0.885
88.4837 1.979
88.5140 1.250
88.5443 1.510
88.5746 1.615
88.6049 1.406
88.6351 1.719
88.6654 1.250
88.6957 1.719
88.7260 1.667
88.7562 1.615
88.7865 1.771
88.8168 1.979
88.8471 1.354
88.8774 1.875
88.9076 1.771
88.9379 1.719
88.9682 1.302
88.9985 1.406
89.0288 1.562
89.0590 1.615
89.0893 1.667
89.1196 1.667
89.1499 2.083
89.1801 2.031
89.2104 1.354
89.2407 1.875
89.2710 1.979
89.3013 2.135
89.3315 1.667
89.3618 1.458
89.3921 1.250
89.4224 1.771
89.4527 1.927
89.4829 1.354
89.5132 1.667
89.5435 1.667
89.5738 1.458
89.6040 1.771
89.6343 1.354
89.6646 1.823
89.6949 1.667
89.7252 1.667
89.7554 1.510
89.7857 1.667
89.8160 1.354
89.8463 1.302
89.8766 1.198
89.9068 1.146
89.9371 1.615
89.9674 1.458
89.9977 1.354
90.0279 1.615
90.0582 1.198
90.0885 1.510
90.1188 1.250
90.1491 1.250
90.1793 1.667
90.2096 1.354
90.2399 1.875
90.2702 1.719
90.3005 1.823
90.3307 1.198
90.3610 1.406
90.3913 1.198
90.4216 1.302
90.4518 1.198
90.4821 1.510
90.5124 1.250
90.5427 1.771
90.5730 1.354
90.6032 1.875
90.6335 1.719
90.6638 1.354
90.6941 2.240
90.7244 1.354
90.7546 1.615
90.7849 1.302
90.8152 1.146
90.8455 1.042
90.8758 0.677
90.9060 1.719
90.9363 1.302
90.9666 1.667
90.9969 1.875
91.0271 1.458
91.0574 1.615
91.0877 1.198
91.1180 1.667
91.1483 1.354
91.1785 1.354
91.2088 1.667
91.2391 1.406
91.2694 1.615
91.2997 1.667
91.3299 1.927
91.3602 1.615
91.3905 2.083
91.4208 2.187
91.4510 1.719
91.4813 1.927
91.5116 1.667
91.5419 1.510
91.5722 1.667
91.6024 1.354
91.6327 1.198
91.6630 1.458
91.6933 1.510
91.7236 1.458
91.7538 1.250
91.7841 1.667
91.8144 1.406
91.8447 1.771
91.8749 1.667
91.9052 1.562
91.9355 1.719
91.9658 1.823
91.9961 1.302
92.0263 1.615
92.0566 1.615
92.0869 1.406
92.1172 1.927
92.1475 1.667
92.1777 1.615
92.2080 1.875
92.2383 1.979
92.2686 1.667
92.2988 1.458
92.3291 1.823
92.3594 1.510
92.3897 1.406
92.4200 1.354
92.4502 2.292
92.4805 1.510
92.5108 1.875
92.5411 1.562
92.5714 1.146
92.6016 1.510
92.6319 1.667
92.6622 1.510
92.6925 1.667
92.7227 1.354
92.7530 1.823
92.7833 1.771
92.8136 0.885
92.8439 1.823
92.8741 1.406
92.9044 1.198
92.9347 1.302
92.9650 1.354
92.9953 1.198
93.0255 1.458
93.0558 1.302
93.0861 1.354
93.1164 2.187
93.1466 1.510
93.1769 1.823
93.2072 1.354
93.2375 1.875
93.2678 1.250
93.2980 1.510
93.3283 1.458
93.3586 1.979
93.3889 1.615
93.4192 1.406
93.4494 1.198
93.4797 1.458
93.5100 1.875
93.5403 1.406
93.5706 1.667
93.6008 1.354
93.6311 1.719
93.6614 1.146
93.6917 1.979
93.7219 1.562
93.7522 1.198
93.7825 1.510
93.8128 1.875
93.8431 0.990
93.8733 1.615
93.9036 1.667
93.9339 1.198
93.9642 1.719
93.9945 0.937
94.0247 1.562
94.0550 1.823
94.0853 1.719
94.1156 1.667
94.1458 1.042
94.1761 1.562
94.2064 1.146
94.2367 1.562
94.2670 1.406
94.2972 1.042
94.3275 1.406
94.3578 1.354
94.3881 1.354
94.4184 1.771
94.4486 1.615
94.4789 1.406
94.5092 1.406
94.5395 1.198
94.5697 1.458
94.6000 1.250
94.6303 1.719
94.6606 1.667
94.6909 1.042
94.7211 2.292
94.7514 1.562
94.7817 1.094
94.8120 1.354
94.8423 1.458
94.8725 1.302
94.9028 1.406
94.9331 1.250
94.9634 1.354
94.9936 1.719
95.0239 1.354
95.0542 2.135
95.0845 1.667
95.1148 1.458
95.1450 0.937
95.1753 1.250
95.2056 1.042
95.2359 1.354
95.2662 1.250
95.2964 1.458
95.3267 1.042
95.3570 0.937
95.3873 1.406
95.4175 1.927
95.4478 1.094
95.4781 1.198
95.5084 1.302
95.5387 1.510
95.5689 1.615
95.5992 1.406
95.6295 1.615
95.6598 0.885
95.6901 1.823
95.7203 1.510
95.7506 1.458
95.7809 1.094
95.8112 0.885
95.8414 1.250
95.8717 1.458
95.9020 1.250
95.9323 1.615
95.9626 1.354
95.9928 1.510
96.0231 1.042
96.0534 1.771
96.0837 1.510
96.1140 1.615
96.1442 1.510
96.1745 1.302
96.2048 1.719
96.2351 1.406
96.2653 1.771
96.2956 1.875
96.3259 1.823
96.3562 1.406
96.3865 0.937
96.4167 1.250
96.4470 1.250
96.4773 1.510
96.5076 1.615
96.5379 1.302
96.5681 1.406
96.5984 1.302
96.6287 2.396
96.6590 1.562
96.6893 1.302
96.7195 1.562
96.7498 1.823
96.7801 1.302
96.8104 1.458
96.8406 1.146
96.8709 1.458
96.9012 1.771
96.9315 1.510
96.9618 1.146
96.9920 1.510
97.0223 1.615
97.0526 1.458
97.0829 1.406
97.1132 1.823
97.1434 1.719
97.1737 2.031
97.2040 1.302
97.2343 1.510
97.2645 1.354
97.2948 1.667
97.3251 1.667
97.3554 1.667
97.3857 1.146
97.4159 1.615
97.4462 1.510
97.4765 1.458
97.5068 2.135
97.5371 1.875
97.5673 1.406
97.5976 1.927
97.6279 1.094
97.6582 1.146
97.6884 1.406
97.7187 1.667
97.7490 1.562
97.7793 1.354
97.8096 1.354
97.8398 1.458
97.8701 1.771
97.9004 1.354
97.9307 1.927
97.9610 1.354
97.9912 1.198
98.0215 0.990
98.0518 1.823
98.0821 1.250
98.1123 1.562
98.1426 1.875
98.1729 1.771
98.2032 1.406
98.2335 1.667
98.2637 1.875
98.2940 1.042
98.3243 1.771
98.3546 1.406
98.3849 1.302
98.4151 0.885
98.4454 1.302
98.4757 0.885
98.5060 1.458
98.5362 1.667
98.5665 1.458
98.5968 1.562
98.6271 1.771
98.6574 1.302
98.6876 1.302
98.7179 1.667
98.7482 1.406
98.7785 1.510
98.8088 1.615
98.8390 1.302
98.8693 1.094
98.8996 0.833
98.9299 1.406
98.9601 1.302
98.9904 1.719
99.0207 1.719
99.0510 1.875
99.0813 1.458
99.1115 1.510
99.1418 1.250
99.1721 1.875
99.2024 1.562
99.2327 1.667
99.2629 1.250
99.2932 1.250
99.3235 1.667
99.3538 1.198
99.3841 1.406
99.4143 1.302
99.4446 1.302
99.4749 1.927
99.5052 1.458
99.5354 1.458
99.5657 1.562
99.5960 1.458
99.6263 1.823
99.6566 1.667
99.6868 1.354
99.7171 1.302
99.7474 1.510
99.7777 1.458
99.8080 1.406
99.8382 1.667
99.8685 1.302
99.8988 1.302
99.9291 1.302
99.9593 1.302
99.9896 1.562
100.0199 1.458
100.0502 1.406
100.0805 1.354
100.1107 1.458
100.1410 1.302
100.1713 1.667
100.2016 1.406
100.2319 1.719
100.2621 1.979
100.2924 1.771
100.3227 1.302
100.3530 1.146
100.3832 2.135
100.4135 1.354
100.4438 1.198
100.4741 1.562
100.5044 1.406
100.5346 0.937
100.5649 0.937
100.5952 1.510
100.6255 1.094
100.6558 1.719
100.6860 1.094
100.7163 1.354
100.7466 1.042
100.7769 1.302
100.8071 1.198
100.8374 1.146
100.8677 1.719
100.8980 1.510
100.9283 1.094
100.9585 1.146
100.9888 1.719
101.0191 1.354
101.0494 0.990
101.0797 1.198
101.1099 1.146
101.1402 1.875
101.1705 0.781
101.2008 1.406
101.2310 1.875
101.2613 1.562
101.2916 1.094
101.3219 1.510
101.3522 1.562
101.3824 1.146
101.4127 1.198
101.4430 1.250
101.4733 1.406
101.5036 1.458
101.5338 1.354
101.5641 1.667
101.5944 1.302
101.6247 1.302
101.6549 1.615
101.6852 2.187
101.7155 1.458
101.7458 1.354
101.7761 0.833
101.8063 1.510
101.8366 1.354
101.8669 1.354
101.8972 1.510
101.9275 0.937
101.9577 1.823
101.9880 1.562
102.0183 1.667
102.0486 1.510
102.0788 1.771
102.1091 1.615
102.1394 1.771
102.1697 1.094
102.2000 1.823
102.2302 1.510
102.2605 1.406
102.2908 1.354
102.3211 1.823
102.3514 1.354
102.3816 1.510
102.4119 1.354
102.4422 1.250
102.4725 1.562
102.5028 1.354
102.5330 1.458
102.5633 1.406
102.5936 1.354
102.6239 1.771
102.6541 1.302
102.6844 1.510
102.7147 0.990
102.7450 0.937
102.7753 1.406
102.8055 1.302
102.8358 1.354
102.8661 1.719
102.8964 1.354
102.9267 1.302
102.9569 1.146
102.9872 1.823
103.0175 1.562
103.0478 1.979
103.0780 0.781
103.1083 1.406
103.1386 1.250
103.1689 1.354
103.1992 0.833
103.2294 1.354
103.2597 1.250
103.2900 1.510
103.3203 1.510
103.3506 1.510
103.3808 0.937
103.4111 1.354
103.4414 1.354
103.4717 1.823
103.5019 1.458
103.5322 1.354
103.5625 1.198
103.5928 1.198
103.6231 1.667
103.6533 1.510
103.6836 1.354
103.7139 1.146
103.7442 1.198
103.7745 1.562
103.8047 1.562
103.8350 1.406
103.8653 1.354
103.8956 1.250
103.9258 1.354
103.9561 1.406
103.9864 1.250
104.0167 1.094
104.0470 1.302
104.0772 1.250
104.1075 1.354
104.1378 1.406
104.1681 1.458
104.1984 1.771
104.2286 1.146
104.2589 1.250
104.2892 1.510
104.3195 1.042
104.3497 1.146
104.3800 1.302
104.4103 1.458
104.4406 1.667
104.4709 1.198
104.5011 1.198
104.5314 1.562
104.5617 2.083
104.5920 1.927
104.6223 1.771
104.6525 1.146
104.6828 1.406
104.7131 1.146
104.7434 1.354
104.7736 1.406
104.8039 1.146
104.8342 1.615
104.8645 1.094
104.8948 1.094
104.9250 1.042
104.9553 1.354
104.9856 2.031
105.0159 1.562
105.0462 1.302
105.0764 1.406
105.1067 1.302
105.1370 1.510
105.1673 1.667
105.1975 1.198
105.2278 1.719
105.2581 1.042
105.2884 1.354
105.3187 1.250
105.3489 1.406
105.3792 1.302
105.4095 1.979
105.4398 1.510
105.4701 1.771
105.5003 0.885
105.5306 0.990
105.5609 1.146
105.5912 1.094
105.6215 1.406
105.6517 1.354
105.6820 1.354
105.7123 1.458
105.7426 1.615
105.7728 1.198
105.8031 1.406
105.8334 1.302
105.8637 1.302
105.8940 1.198
105.9242 1.458
105.9545 1.615
105.9848 1.615
106.0151 1.406
106.0454 1.458
106.0756 1.667
106.1059 1.510
106.1362 1.458
106.1665 1.302
106.1967 1.458
106.2270 1.406
106.2573 1.406
106.2876 1.198
106.3179 1.198
106.3481 1.458
106.3784 1.562
106.4087 1.198
106.4390 1.146
106.4693 1.979
106.4995 1.354
106.5298 1.354
106.5601 1.302
106.5904 1.406
106.6206 1.198
106.6509 1.302
106.6812 1.198
106.7115 1.458
106.7418 1.354
106.7720 1.458
106.8023 1.458
106.8326 1.354
106.8629 1.406
106.8932 0.625
106.9234 0.990
106.9537 1.979
106.9840 1.302
107.0143 1.719
107.0445 1.302
107.0748 1.615
107.1051 1.510
107.1354 1.771
107.1657 1.302
107.1959 0.885
107.2262 1.198
107.2565 0.990
107.2868 1.510
107.3171 1.354
107.3473 1.510
107.3776 1.406
107.4079 1.458
107.4382 1.719
107.4684 1.146
107.4987 1.823
107.5290 0.990
107.5593 1.510
107.5896 1.250
107.6198 1.510
107.6501 1.198
107.6804 0.937
107.7107 1.198
107.7410 1.510
107.7712 1.042
107.8015 1.302
107.8318 1.094
107.8621 1.354
107.8923 1.094
107.9226 1.458
107.9529 1.771
107.9832 1.146
108.0135 1.354
108.0437 0.885
108.0740 1.562
108.1043 1.250
108.1346 1.823
108.1649 1.094
108.1951 1.250
108.2254 0.937
108.2557 1.458
108.2860 1.510
108.3163 1.094
108.3465 1.354
108.3768 1.146
108.4071 1.146
108.4374 1.510
108.4676 1.302
108.4979 1.458
108.5282 1.198
108.5585 1.875
108.5888 1.510
108.6190 1.198
108.6493 0.937
108.6796 1.042
108.7099 1.510
108.7402 1.094
108.7704 0.937
108.8007 1.510
108.8310 1.354
108.8613 1.302
108.8915 1.510
108.9218 1.250
108.9521 1.042
108.9824 1.458
109.0127 1.719
109.0429 0.937
109.0732 1.562
109.1035 1.094
109.1338 1.458
109.1641 1.458
109.1943 1.094
109.2246 1.406
109.2549 1.406
109.2852 1.615
109.3154 1.302
109.3457 1.510
109.3760 1.562
109.4063 1.458
109.4366 1.198
109.4668 1.406
109.4971 1.250
109.5274 1.250
109.5577 1.198
109.5880 1.719
109.6182 1.198
109.6485 0.990
109.6788 1.406
109.7091 1.823
109.7393 1.771
109.7696 1.562
109.7999 1.510
109.8302 1.094
109.8605 1.562
109.8907 1.250
109.9210 1.823
109.9513 1.354
109.9816 1.250
110.0119 1.510
110.0421 1.875
110.0724 1.250
110.1027 1.562
110.1330 1.354
110.1632 0.885
110.1935 1.250
110.2238 1.042
110.2541 1.771
110.2844 1.823
110.3146 1.250
110.3449 1.510
110.3752 1.667
110.4055 1.562
110.4358 1.615
110.4660 1.250
110.4963 1.406
110.5266 1.510
110.5569 1.354
110.5871 1.562
110.6174 1.406
110.6477 1.406
110.6780 1.510
110.7083 1.354
110.7385 1.823
110.7688 1.667
110.7991 1.667
110.8294 1.354
110.8597 1.406
110.8899 1.510
110.9202 1.458
110.9505 1.094
110.9808 1.875
111.0110 1.250
111.0413 2.083
111.0716 1.354
111.1019 1.302
111.1322 1.302
111.1624 1.510
111.1927 1.927
111.2230 1.250
111.2533 1.250
111.2836 1.146
111.3138 1.406
111.3441 1.510
111.3744 1.615
111.4047 1.406
111.4350 1.562
111.4652 1.250
111.4955 1.146
111.5258 1.250
111.5561 1.198
111.5863 1.406
111.6166 0.990
111.6469 1.250
111.6772 1.406
111.7075 1.823
111.7377 0.885
111.7680 1.250
111.7983 1.354
111.8286 1.146
111.8589 1.562
111.8891 1.302
111.9194 1.198
111.9497 1.406
111.9800 1.198
112.0102 1.198
112.0405 1.458
112.0708 1.146
112.1011 0.677
112.1314 1.250
112.1616 1.198
112.1919 1.198
112.2222 1.042
112.2525 1.250
112.2828 1.667
112.3130 1.615
112.3433 1.562
112.3736 1.406
112.4039 1.354
112.4341 1.198
112.4644 1.302
112.4947 1.146
112.5250 1.458
112.5553 1.094
112.5855 1.042
112.6158 1.354
112.6461 1.250
112.6764 1.302
112.7067 1.406
112.7369 1.302
112.7672 1.458
112.7975 1.510
112.8278 1.302
112.8580 0.781
112.8883 1.198
112.9186 1.302
112.9489 1.979
112.9792 0.990
113.0094 1.458
113.0397 1.354
113.0700 1.146
113.1003 1.615
113.1306 1.615
113.1608 1.458
113.1911 1.458
113.2214 1.927
113.2517 1.146
113.2819 1.198
113.3122 1.302
113.3425 2.448
113.3728 1.354
113.4031 1.198
113.4333 1.510
113.4636 1.146
113.4939 0.833
113.5242 1.302
113.5545 1.823
113.5847 1.615
113.6150 1.354
113.6453 1.458
113.6756 0.833
113.7058 1.510
113.7361 1.562
113.7664 1.406
113.7967 1.406
113.8270 1.458
113.8572 1.615
113.8875 1.146
113.9178 1.354
113.9481 1.094
113.9784 1.406
114.0086 0.937
114.0389 1.771
114.0692 1.094
114.0995 1.354
114.1298 1.406
114.1600 1.615
114.1903 1.250
114.2206 1.667
114.2509 0.990
114.2811 1.094
114.3114 0.573
114.3417 1.354
114.3720 1.146
114.4023 1.719
114.4325 1.615
114.4628 1.146
114.4931 1.198
114.5234 1.667
114.5537 1.406
114.5839 1.615
114.6142 1.302
114.6445 1.302
114.6748 0.990
114.7050 1.406
114.7353 1.302
114.7656 1.094
114.7959 1.250
114.8262 1.302
114.8564 1.719
114.8867 1.562
114.9170 1.198
114.9473 1.510
114.9776 1.823
115.0078 1.146
115.0381 1.146
115.0684 1.094
115.0987 1.250
115.1289 1.875
115.1592 1.667
115.1895 1.667
115.2198 1.146
115.2501 1.354
115.2803 1.146
115.3106 1.198
115.3409 1.094
115.3712 1.667
115.4015 1.771
115.4317 1.771
115.4620 1.875
115.4923 1.250
115.5226 1.042
115.5528 1.667
115.5831 1.250
115.6134 1.198
115.6437 1.198
115.6740 1.354
115.7042 1.719
115.7345 1.354
115.7648 1.198
115.7951 1.354
115.8254 1.302
115.8556 1.146
115.8859 1.771
115.9162 1.146
115.9465 1.719
115.9767 2.031
116.0070 1.667
116.0373 0.937
116.0676 1.354
116.0979 1.406
116.1281 1.302
116.1584 1.771
116.1887 0.990
116.2190 1.562
116.2493 1.406
116.2795 1.094
116.3098 1.562
116.3401 0.833
116.3704 1.146
116.4006 1.042
116.4309 1.458
116.4612 1.146
116.4915 1.719
116.5218 1.250
116.5520 1.458
116.5823 1.354
116.6126 1.458
116.6429 1.250
116.6732 2.031
116.7034 1.615
116.7337 1.250
116.7640 1.719
116.7943 1.562
116.8245 0.990
116.8548 1.302
116.8851 1.562
116.9154 1.615
116.9457 1.979
116.9759 1.667
117.0062 1.979
117.0365 1.823
117.0668 1.510
117.0971 1.667
117.1273 1.719
117.1576 1.562
117.1879 1.510
117.2182 1.510
117.2485 1.406
117.2787 1.302
117.3090 1.406
117.3393 1.198
117.3696 1.250
117.3998 1.823
117.4301 1.354
117.4604 1.510
117.4907 1.458
117.5210 1.615
117.5512 1.250
117.5815 2.187
117.6118 1.510
117.6421 1.354
117.6724 1.771
117.7026 1.771
117.7329 1.250
117.7632 1.146
117.7935 0.990
117.8237 1.719
117.8540 1.667
117.8843 1.250
117.9146 1.302
117.9449 2.292
117.9751 1.302
118.0054 1.406
118.0357 1.458
118.0660 1.719
118.0963 1.354
118.1265 1.510
118.1568 1.771
118.1871 1.250
118.2174 1.354
118.2476 1.719
118.2779 1.667
118.3082 1.042
118.3385 1.719
118.3688 1.406
118.3990 1.094
118.4293 1.615
118.4596 1.667
118.4899 1.667
118.5202 1.927
118.5504 1.615
118.5807 1.302
118.6110 1.302
118.6413 1.562
118.6715 0.990
118.7018 1.979
118.7321 1.198
118.7624 1.510
118.7927 1.667
118.8229 1.719
118.8532 1.458
118.8835 1.042
118.9138 1.250
118.9441 1.354
118.9743 1.667
119.0046 1.198
119.0349 1.406
119.0652 1.823
119.0954 1.302
119.1257 1.354
119.1560 1.771
119.1863 1.146
119.2166 1.094
119.2468 1.562
119.2771 1.458
119.3074 1.875
119.3377 1.406
119.3680 1.302
119.3982 1.562
119.4285 1.250
119.4588 1.406
119.4891 1.510
119.5193 1.354
119.5496 1.354
119.5799 1.615
119.6102 1.354
119.6405 1.667
119.6707 1.354
119.7010 1.667
119.7313 1.771
119.7616 0.990
119.7919 1.771
119.8221 1.302
119.8524 1.562
119.8827 1.354
119.9130 1.615
119.9433 1.146
119.9735 2.135
120.0038 1.354
