'Id: "" Comment: "" Operator: "Lab Manager" Anode: "Cu" Scantype: "Locked Coupled" TimePerStep: "19.2" X: "9999" Y: "9999" Z: "9999" 
10.0015 4.010
10.0318 4.531
10.0620 4.531
10.0923 4.115
10.1226 4.740
10.1529 4.427
10.1832 4.687
10.2134 2.969
10.2437 3.854
10.2740 4.271
10.3043 2.969
10.3346 3.437
10.3648 4.271
10.3951 3.802
10.4254 3.594
10.4557 4.115
10.4859 4.010
10.5162 3.906
10.5465 3.646
10.5768 4.115
10.6071 3.594
10.6373 3.750
10.6676 3.750
10.6979 3.854
10.7282 3.958
10.7585 4.583
10.7887 4.792
10.8190 3.906
10.8493 5.104
10.8796 4.635
10.9098 4.427
10.9401 3.906
10.9704 4.792
11.0007 5.833
11.0310 5.469
11.0612 5.312
11.0915 5.937
11.1218 4.740
11.1521 5.729
11.1824 4.427
11.2126 5.000
11.2429 3.594
11.2732 4.375
11.3035 3.229
11.3337 4.427
11.3640 3.385
11.3943 4.323
11.4246 3.958
11.4549 3.958
11.4851 4.115
11.5154 4.167
11.5457 3.958
11.5760 3.594
11.6063 3.802
11.6365 3.490
11.6668 3.594
11.6971 3.802
11.7274 4.792
11.7577 3.333
11.7879 2.969
11.8182 3.125
11.8485 3.958
11.8788 3.698
11.9090 3.698
11.9393 3.750
11.9696 2.865
11.9999 2.760
12.0302 4.062
12.0604 3.437
12.0907 4.062
12.1210 3.021
12.1513 3.698
12.1816 4.010
12.2118 2.865
12.2421 3.437
12.2724 3.229
12.3027 3.021
12.3329 3.542
12.3632 3.802
12.3935 4.792
12.4238 4.219
12.4541 3.698
12.4843 3.281
12.5146 2.969
12.5449 3.073
12.5752 3.177
12.6055 3.333
12.6357 2.708
12.6660 3.698
12.6963 3.021
12.7266 2.865
12.7568 3.490
12.7871 3.281
12.8174 3.750
12.8477 3.958
12.8780 3.594
12.9082 4.219
12.9385 3.385
12.9688 2.917
12.9991 4.115
13.0294 2.344
13.0596 3.229
13.0899 2.812
13.1202 3.177
13.1505 3.698
13.1807 3.906
13.2110 3.646
13.2413 3.385
13.2716 2.969
13.3019 3.594
13.3321 3.125
13.3624 3.177
13.3927 2.708
13.4230 3.958
13.4533 3.802
13.4835 3.385
13.5138 3.385
13.5441 3.125
13.5744 3.021
13.6046 3.750
13.6349 3.333
13.6652 3.542
13.6955 2.865
13.7258 4.323
13.7560 3.333
13.7863 2.969
13.8166 2.917
13.8469 3.542
13.8772 2.500
13.9074 3.333
13.9377 2.969
13.9680 3.646
13.9983 2.500
14.0285 3.021
14.0588 3.802
14.0891 3.385
14.1194 2.865
14.1497 3.802
14.1799 2.187
14.2102 2.969
14.2405 2.552
14.2708 3.437
14.3011 4.271
14.3313 2.969
14.3616 3.021
14.3919 3.542
14.4222 2.917
14.4524 3.021
14.4827 3.646
14.5130 3.437
14.5433 3.490
14.5736 3.958
14.6038 2.396
14.6341 3.385
14.6644 2.812
14.6947 2.344
14.7250 4.062
14.7552 3.750
14.7855 3.542
14.8158 3.385
14.8461 3.021
14.8764 3.542
14.9066 2.760
14.9369 3.490
14.9672 3.229
14.9975 2.760
15.0277 2.812
15.0580 2.969
15.0883 2.708
15.1186 3.229
15.1489 3.750
15.1791 3.333
15.2094 3.594
15.2397 3.281
15.2700 2.917
15.3003 2.448
15.3305 3.490
15.3608 3.281
15.3911 3.177
15.4214 2.917
15.4516 3.698
15.4819 4.323
15.5122 2.917
15.5425 3.229
15.5728 3.177
15.6030 2.708
15.6333 2.812
15.6636 2.708
15.6939 2.552
15.7242 3.073
15.7544 2.812
15.7847 3.333
15.8150 3.021
15.8453 3.490
15.8755 3.750
15.9058 3.750
15.9361 3.437
15.9664 3.073
15.9967 2.708
16.0269 2.969
16.0572 3.750
16.0875 2.500
16.1178 2.917
16.1481 3.177
16.1783 2.760
16.2086 3.958
16.2389 2.865
16.2692 3.542
16.2994 3.594
16.3297 2.552
16.3600 3.177
16.3903 3.542
16.4206 2.604
16.4508 2.760
16.4811 2.656
16.5114 3.177
16.5417 3.177
16.5720 3.177
16.6022 3.073
16.6325 3.490
16.6628 3.646
16.6931 3.229
16.7233 2.865
16.7536 2.083
16.7839 3.385
16.8142 2.969
16.8445 3.281
16.8747 3.750
16.9050 2.604
16.9353 4.583
16.9656 3.281
16.9959 2.969
17.0261 2.760
17.0564 4.219
17.0867 2.135
17.1170 3.385
17.1472 3.021
17.1775 2.865
17.2078 2.708
17.2381 2.969
17.2684 3.125
17.2986 3.125
17.3289 3.125
17.3592 3.125
17.3895 3.177
17.4198 2.552
17.4500 2.604
17.4803 2.760
17.5106 2.031
17.5409 2.708
17.5712 3.229
17.6014 3.073
17.6317 2.812
17.6620 2.292
17.6923 3.594
17.7225 4.115
17.7528 3.385
17.7831 2.604
17.8134 3.229
17.8437 3.177
17.8739 2.969
17.9042 2.812
17.9345 2.292
17.9648 2.552
17.9951 2.969
18.0253 2.708
18.0556 2.604
18.0859 2.917
18.1162 1.979
18.1464 2.865
18.1767 2.812
18.2070 2.344
18.2373 3.698
18.2676 3.073
18.2978 3.125
18.3281 2.500
18.3584 2.656
18.3887 2.812
18.4190 3.437
18.4492 3.281
18.4795 2.656
18.5098 2.396
18.5401 2.552
18.5703 2.917
18.6006 2.865
18.6309 2.656
18.6612 3.021
18.6915 2.604
18.7217 2.187
18.7520 3.542
18.7823 2.917
18.8126 3.073
18.8429 2.135
18.8731 2.708
18.9034 2.917
18.9337 2.500
18.9640 2.292
18.9942 3.021
19.0245 2.708
19.0548 2.760
19.0851 3.177
19.1154 4.062
19.1456 2.135
19.1759 3.385
19.2062 2.656
19.2365 2.708
19.2668 2.708
19.2970 2.656
19.3273 1.875
19.3576 2.500
19.3879 2.396
19.4181 3.177
19.4484 2.604
19.4787 3.021
19.5090 3.490
19.5393 2.500
19.5695 2.344
19.5998 3.281
19.6301 3.125
19.6604 3.073
19.6907 3.125
19.7209 2.292
19.7512 2.917
19.7815 2.396
19.8118 2.344
19.8420 2.396
19.8723 2.760
19.9026 3.542
19.9329 2.969
19.9632 2.083
19.9934 3.125
20.0237 2.344
20.0540 2.396
20.0843 2.708
20.1146 3.281
20.1448 3.021
20.1751 3.021
20.2054 2.865
20.2357 2.552
20.2659 2.865
20.2962 3.385
20.3265 2.969
20.3568 3.125
20.3871 2.917
20.4173 2.500
20.4476 3.177
20.4779 2.708
20.5082 3.385
20.5385 3.490
20.5687 2.656
20.5990 3.073
20.6293 2.187
20.6596 2.135
20.6899 2.552
20.7201 3.490
20.7504 3.073
20.7807 3.385
20.8110 2.708
20.8412 2.552
20.8715 2.500
20.9018 3.073
20.9321 3.177
20.9624 2.760
20.9926 2.604
21.0229 2.917
21.0532 2.031
21.0835 2.812
21.1138 2.656
21.1440 2.552
21.1743 2.708
21.2046 2.656
21.2349 2.031
21.2651 2.969
21.2954 3.021
21.3257 2.604
21.3560 2.760
21.3863 2.552
21.4165 2.656
21.4468 3.021
21.4771 2.552
21.5074 2.292
21.5377 2.708
21.5679 2.448
21.5982 2.187
21.6285 2.187
21.6588 2.500
21.6890 2.708
21.7193 2.760
21.7496 2.292
21.7799 2.396
21.8102 2.656
21.8404 3.177
21.8707 2.708
21.9010 2.604
21.9313 2.917
21.9616 2.812
21.9918 2.292
22.0221 2.604
22.0524 2.344
22.0827 2.604
22.1129 2.448
22.1432 3.073
22.1735 2.396
22.2038 2.396
22.2341 2.812
22.2643 2.187
22.2946 2.969
22.3249 2.604
22.3552 3.281
22.3855 3.385
22.4157 3.542
22.4460 2.500
22.4763 2.917
22.5066 3.750
22.5368 2.865
22.5671 2.760
22.5974 2.500
22.6277 2.760
22.6580 2.604
22.6882 2.500
22.7185 3.437
22.7488 3.073
22.7791 2.812
22.8094 2.344
22.8396 2.344
22.8699 2.292
22.9002 2.448
22.9305 2.240
22.9607 2.240
22.9910 2.604
23.0213 2.187
23.0516 3.177
23.0819 2.292
23.1121 3.125
23.1424 2.344
23.1727 2.656
23.2030 2.396
23.2333 2.865
23.2635 2.500
23.2938 2.604
23.3241 2.083
23.3544 2.656
23.3846 2.448
23.4149 2.969
23.4452 1.823
23.4755 2.969
23.5058 2.656
23.5360 2.292
23.5663 1.979
23.5966 2.760
23.6269 2.708
23.6572 2.396
23.6874 2.240
23.7177 3.073
23.7480 2.187
23.7783 2.812
23.8086 2.917
23.8388 2.448
23.8691 2.812
23.8994 2.969
23.9297 2.552
23.9599 2.604
23.9902 2.500
24.0205 2.344
24.0508 2.969
24.0811 2.812
24.1113 2.969
24.1416 1.875
24.1719 3.073
24.2022 2.552
24.2325 2.187
24.2627 2.865
24.2930 2.708
24.3233 2.396
24.3536 3.750
24.3838 2.865
24.4141 3.594
24.4444 2.760
24.4747 2.865
24.5050 2.760
24.5352 2.917
24.5655 2.396
24.5958 2.604
24.6261 2.396
24.6564 2.552
24.6866 2.604
24.7169 2.708
24.7472 2.500
24.7775 2.500
24.8077 3.333
24.8380 2.760
24.8683 3.021
24.8986 2.135
24.9289 2.135
24.9591 2.552
24.9894 2.396
25.0197 2.760
25.0500 2.708
25.0803 2.500
25.1105 2.656
25.1408 2.969
25.1711 3.073
25.2014 2.917
25.2316 3.385
25.2619 2.604
25.2922 3.437
25.3225 2.812
25.3528 2.969
25.3830 2.969
25.4133 3.125
25.4436 2.760
25.4739 2.708
25.5042 2.500
25.5344 2.656
25.5647 2.656
25.5950 3.281
25.6253 2.240
25.6555 2.396
25.6858 2.917
25.7161 2.656
25.7464 2.604
25.7767 2.292
25.8069 3.125
25.8372 2.396
25.8675 2.969
25.8978 2.917
25.9281 2.708
25.9583 3.490
25.9886 2.083
26.0189 2.448
26.0492 3.125
26.0794 2.812
26.1097 3.073
26.1400 2.865
26.1703 3.333
26.2006 2.396
26.2308 3.490
26.2611 2.552
26.2914 3.490
26.3217 2.396
26.3520 2.917
26.3822 2.760
26.4125 2.917
26.4428 3.177
26.4731 2.552
26.5034 2.812
26.5336 2.656
26.5639 2.812
26.5942 2.396
26.6245 3.229
26.6547 3.021
26.6850 2.656
26.7153 2.760
26.7456 2.396
26.7759 2.604
26.8061 2.969
26.8364 3.333
26.8667 2.135
26.8970 3.698
26.9273 3.021
26.9575 2.812
26.9878 3.594
27.0181 2.812
27.0484 3.021
27.0786 3.281
27.1089 3.125
27.1392 3.177
27.1695 2.917
27.1998 2.708
27.2300 3.854
27.2603 2.187
27.2906 2.760
27.3209 3.698
27.3512 3.177
27.3814 2.552
27.4117 3.646
27.4420 2.917
27.4723 3.125
27.5025 3.802
27.5328 3.021
27.5631 2.969
27.5934 2.448
27.6237 3.333
27.6539 2.448
27.6842 2.448
27.7145 2.865
27.7448 3.958
27.7751 2.917
27.8053 3.437
27.8356 3.021
27.8659 2.708
27.8962 2.917
27.9264 3.021
27.9567 3.333
27.9870 3.333
28.0173 4.167
28.0476 3.021
28.0778 3.229
28.1081 3.385
28.1384 3.750
28.1687 3.802
28.1990 3.385
28.2292 3.281
28.2595 2.448
28.2898 3.125
28.3201 2.760
28.3503 3.542
28.3806 3.750
28.4109 2.917
28.4412 3.229
28.4715 3.385
28.5017 3.802
28.5320 3.906
28.5623 2.812
28.5926 2.865
28.6229 2.500
28.6531 3.542
28.6834 3.646
28.7137 3.646
28.7440 4.323
28.7742 2.969
28.8045 3.021
28.8348 3.281
28.8651 3.854
28.8954 3.333
28.9256 3.125
28.9559 2.448
28.9862 2.500
29.0165 3.073
29.0468 3.542
29.0770 3.906
29.1073 3.333
29.1376 3.385
29.1679 4.844
29.1981 2.865
29.2284 3.802
29.2587 3.906
29.2890 3.542
29.3193 3.437
29.3495 3.490
29.3798 4.219
29.4101 2.604
29.4404 3.854
29.4707 4.323
29.5009 4.115
29.5312 3.958
29.5615 3.437
29.5918 3.437
29.6221 4.635
29.6523 4.323
29.6826 3.802
29.7129 3.854
29.7432 3.594
29.7734 4.010
29.8037 3.958
29.8340 3.750
29.8643 4.219
29.8946 3.542
29.9248 3.281
29.9551 3.906
29.9854 4.531
30.0157 3.646
30.0460 4.323
30.0762 4.219
30.1065 4.115
30.1368 5.156
30.1671 5.052
30.1973 4.271
30.2276 4.115
30.2579 5.104
30.2882 4.375
30.3185 4.167
30.3487 3.802
30.3790 4.219
30.4093 5.417
30.4396 4.375
30.4699 4.583
30.5001 4.219
30.5304 5.625
30.5607 4.844
30.5910 4.948
30.6212 5.677
30.6515 6.354
30.6818 5.365
30.7121 6.250
30.7424 5.260
30.7726 5.573
30.8029 5.469
30.8332 6.927
30.8635 7.552
30.8938 7.865
30.9240 6.406
30.9543 7.812
30.9846 9.583
31.0149 7.135
31.0451 8.698
31.0754 9.896
31.1057 11.250
31.1360 9.792
31.1663 12.031
31.1965 13.333
31.2268 13.906
31.2571 15.312
31.2874 17.500
31.3177 19.844
31.3479 22.865
31.3782 25.677
31.4085 28.542
31.4388 31.979
31.4690 38.542
31.4993 40.885
31.5296 45.521
31.5599 51.823
31.5902 58.750
31.6204 62.083
31.6507 63.385
31.6810 60.417
31.7113 61.302
31.7416 56.667
31.7718 52.135
31.8021 45.052
31.8324 40.469
31.8627 36.302
31.8929 29.115
31.9232 28.021
31.9535 23.437
31.9838 21.927
32.0141 18.646
32.0443 14.687
32.0746 16.146
32.1049 13.594
32.1352 12.240
32.1655 10.573
32.1957 10.365
32.2260 10.729
32.2563 9.010
32.2866 8.125
32.3169 8.490
32.3471 7.760
32.3774 7.812
32.4077 7.708
32.4380 7.135
32.4682 7.292
32.4985 6.823
32.5288 7.500
32.5591 7.292
32.5894 6.354
32.6196 5.729
32.6499 6.198
32.6802 7.083
32.7105 5.833
32.7408 7.083
32.7710 5.885
32.8013 5.729
32.8316 5.990
32.8619 5.365
32.8921 5.677
32.9224 5.000
32.9527 4.010
32.9830 5.781
33.0133 6.510
33.0435 5.417
33.0738 5.521
33.1041 4.427
33.1344 6.042
33.1647 5.260
33.1949 5.469
33.2252 5.104
33.2555 5.521
33.2858 5.937
33.3160 5.573
33.3463 5.312
33.3766 5.990
33.4069 5.312
33.4372 5.000
33.4674 5.208
33.4977 5.365
33.5280 7.187
33.5583 6.146
33.5886 6.302
33.6188 6.562
33.6491 6.458
33.6794 7.240
33.7097 5.781
33.7399 7.344
33.7702 8.385
33.8005 7.812
33.8308 8.802
33.8611 9.427
33.8913 9.219
33.9216 12.448
33.9519 10.365
33.9822 12.604
34.0125 13.906
34.0427 15.365
34.0730 16.042
34.1033 20.312
34.1336 22.083
34.1638 30.729
34.1941 38.906
34.2244 47.135
34.2547 64.948
34.2850 77.292
34.3152 84.271
34.3455 77.396
34.3758 68.125
34.4061 56.198
34.4364 43.021
34.4666 37.292
34.4969 28.385
34.5272 22.917
34.5575 18.802
34.5877 18.281
34.6180 12.865
34.6483 14.010
34.6786 11.615
34.7089 11.979
34.7391 11.406
34.7694 10.677
34.7997 11.667
34.8300 8.281
34.8603 10.104
34.8905 8.490
34.9208 8.646
34.9511 9.323
34.9814 10.312
35.0116 7.812
35.0419 7.917
35.0722 8.437
35.1025 7.292
35.1328 9.792
35.1630 9.115
35.1933 9.479
35.2236 8.646
35.2539 8.385
35.2842 8.698
35.3144 9.635
35.3447 9.271
35.3750 9.740
35.4053 10.677
35.4356 10.625
35.4658 12.292
35.4961 10.260
35.5264 12.500
35.5567 13.177
35.5869 14.062
35.6172 16.354
35.6475 15.833
35.6778 17.031
35.7081 18.490
35.7383 22.187
35.7686 23.802
35.7989 25.573
35.8292 29.740
35.8595 35.521
35.8897 41.354
35.9200 43.698
35.9503 52.396
35.9806 62.500
36.0108 68.333
36.0411 79.948
36.0714 87.917
36.1017 94.896
36.1320 99.687
36.1622 96.146
36.1925 96.979
36.2228 85.417
36.2531 82.240
36.2834 72.500
36.3136 59.375
36.3439 54.323
36.3742 47.083
36.4045 41.615
36.4347 34.635
36.4650 29.792
36.4953 25.885
36.5256 23.854
36.5559 21.979
36.5861 17.917
36.6164 18.125
36.6467 14.740
36.6770 13.125
36.7073 12.604
36.7375 13.437
36.7678 11.406
36.7981 10.677
36.8284 10.312
36.8586 10.885
36.8889 9.010
36.9192 9.323
36.9495 7.396
36.9798 8.698
37.0100 8.073
37.0403 7.448
37.0706 6.875
37.1009 6.562
37.1312 6.302
37.1614 5.833
37.1917 5.677
37.2220 6.719
37.2523 6.198
37.2825 5.312
37.3128 6.823
37.3431 6.146
37.3734 5.625
37.4037 4.844
37.4339 5.000
37.4642 4.740
37.4945 5.521
37.5248 4.323
37.5551 4.792
37.5853 4.635
37.6156 4.427
37.6459 5.156
37.6762 3.906
37.7064 3.958
37.7367 4.427
37.7670 3.802
37.7973 4.010
37.8276 3.021
37.8578 4.479
37.8881 4.010
37.9184 3.646
37.9487 4.115
37.9790 3.229
38.0092 3.802
38.0395 3.333
38.0698 3.698
38.1001 3.490
38.1304 3.594
38.1606 3.802
38.1909 4.115
38.2212 3.542
38.2515 4.531
38.2817 3.542
38.3120 3.437
38.3423 3.490
38.3726 3.021
38.4029 3.073
38.4331 2.760
38.4634 2.656
38.4937 3.333
38.5240 3.698
38.5543 2.865
38.5845 3.281
38.6148 3.333
38.6451 3.646
38.6754 3.177
38.7056 2.865
38.7359 3.021
38.7662 3.177
38.7965 4.010
38.8268 2.656
38.8570 2.344
38.8873 2.292
38.9176 2.708
38.9479 2.708
38.9782 2.656
39.0084 2.760
39.0387 2.865
39.0690 2.708
39.0993 2.500
39.1295 2.240
39.1598 3.125
39.1901 2.917
39.2204 2.760
39.2507 3.073
39.2809 2.448
39.3112 2.552
39.3415 3.281
39.3718 3.437
39.4021 2.552
39.4323 2.396
39.4626 3.490
39.4929 2.656
39.5232 2.448
39.5534 1.875
39.5837 2.969
39.6140 2.344
39.6443 3.021
39.6746 2.812
39.7048 2.500
39.7351 2.552
39.7654 2.031
39.7957 2.760
39.8260 2.135
39.8562 3.125
39.8865 2.552
39.9168 2.396
39.9471 2.760
39.9773 2.187
40.0076 2.396
40.0379 2.500
40.0682 2.656
40.0985 2.031
40.1287 3.125
40.1590 2.396
40.1893 2.708
40.2196 2.656
40.2499 2.760
40.2801 1.719
40.3104 2.344
40.3407 2.604
40.3710 2.500
40.4012 2.552
40.4315 2.656
40.4618 3.073
40.4921 2.812
40.5224 2.187
40.5526 2.552
40.5829 2.396
40.6132 2.031
40.6435 2.031
40.6738 2.396
40.7040 2.135
40.7343 1.771
40.7646 2.396
40.7949 2.292
40.8251 2.604
40.8554 1.927
40.8857 2.396
40.9160 2.292
40.9463 1.979
40.9765 2.344
41.0068 1.979
41.0371 2.292
41.0674 3.021
41.0977 2.135
41.1279 2.344
41.1582 2.135
41.1885 2.448
41.2188 2.135
41.2491 2.083
41.2793 2.865
41.3096 2.500
41.3399 2.760
41.3702 2.083
41.4004 1.927
41.4307 2.500
41.4610 2.656
41.4913 2.187
41.5216 1.667
41.5518 2.031
41.5821 2.865
41.6124 2.187
41.6427 1.510
41.6730 2.135
41.7032 2.083
41.7335 1.667
41.7638 2.865
41.7941 2.656
41.8243 1.719
41.8546 2.604
41.8849 2.187
41.9152 2.917
41.9455 2.604
41.9757 2.187
42.0060 2.240
42.0363 1.771
42.0666 2.604
42.0969 1.927
42.1271 2.135
42.1574 2.656
42.1877 2.187
42.2180 1.667
42.2482 2.240
42.2785 1.719
42.3088 2.656
42.3391 2.500
42.3694 1.354
42.3996 2.083
42.4299 2.708
42.4602 2.656
42.4905 2.344
42.5208 1.771
42.5510 2.187
42.5813 2.031
42.6116 2.865
42.6419 2.031
42.6721 2.240
42.7024 2.187
42.7327 2.240
42.7630 2.552
42.7933 2.917
42.8235 2.031
42.8538 2.240
42.8841 2.604
42.9144 1.823
42.9447 1.979
42.9749 1.979
43.0052 2.292
43.0355 2.604
43.0658 1.771
43.0960 2.292
43.1263 2.031
43.1566 1.927
43.1869 2.396
43.2172 2.292
43.2474 2.240
43.2777 1.927
43.3080 2.552
43.3383 2.031
43.3686 1.510
43.3988 2.500
43.4291 2.083
43.4594 2.083
43.4897 2.708
43.5199 2.500
43.5502 2.187
43.5805 1.771
43.6108 2.760
43.6411 2.604
43.6713 2.396
43.7016 2.500
43.7319 1.875
43.7622 2.708
43.7925 2.552
43.8227 2.031
43.8530 1.875
43.8833 1.979
43.9136 2.552
43.9439 2.708
43.9741 1.667
44.0044 2.187
44.0347 2.500
44.0650 2.292
44.0952 2.917
44.1255 1.927
44.1558 1.875
44.1861 2.448
44.2164 1.771
44.2466 1.771
44.2769 2.656
44.3072 1.823
44.3375 2.083
44.3678 2.135
44.3980 1.927
44.4283 2.135
44.4586 2.865
44.4889 2.240
44.5191 2.604
44.5494 2.031
44.5797 2.865
44.6100 2.396
44.6403 2.396
44.6705 2.500
44.7008 2.083
44.7311 1.979
44.7614 2.760
44.7917 2.812
44.8219 2.448
44.8522 2.083
44.8825 3.177
44.9128 2.969
44.9430 2.760
44.9733 2.552
45.0036 1.927
45.0339 2.552
45.0642 2.448
45.0944 2.031
45.1247 2.344
45.1550 2.500
45.1853 3.021
45.2156 1.719
45.2458 2.604
45.2761 2.656
45.3064 2.187
45.3367 2.240
45.3669 2.448
45.3972 2.760
45.4275 1.875
45.4578 1.979
45.4881 2.500
45.5183 2.135
45.5486 2.604
45.5789 2.396
45.6092 2.500
45.6395 2.656
45.6697 2.865
45.7000 3.333
45.7303 2.448
45.7606 2.604
45.7908 2.031
45.8211 2.448
45.8514 2.656
45.8817 2.396
45.9120 2.552
45.9422 3.542
45.9725 3.229
46.0028 2.448
46.0331 2.552
46.0634 3.125
46.0936 2.604
46.1239 2.604
46.1542 3.021
46.1845 3.021
46.2147 2.812
46.2450 2.865
46.2753 3.021
46.3056 2.604
46.3359 2.552
46.3661 2.865
46.3964 2.865
46.4267 2.812
46.4570 2.604
46.4873 2.969
46.5175 2.812
46.5478 3.281
46.5781 2.969
46.6084 2.604
46.6386 3.802
46.6689 3.594
46.6992 2.760
46.7295 3.281
46.7598 3.490
46.7900 3.542
46.8203 4.062
46.8506 4.375
46.8809 4.740
46.9112 4.219
46.9414 5.417
46.9717 5.469
47.0020 5.573
47.0323 5.573
47.0626 7.344
47.0928 7.240
47.1231 8.594
47.1534 9.271
47.1837 10.104
47.2139 10.365
47.2442 13.854
47.2745 14.948
47.3048 17.865
47.3351 20.365
47.3653 20.729
47.3956 21.250
47.4259 21.458
47.4562 20.156
47.4865 20.365
47.5167 19.427
47.5470 17.812
47.5773 15.625
47.6076 13.594
47.6378 12.292
47.6681 11.562
47.6984 9.635
47.7287 7.500
47.7590 7.604
47.7892 7.812
47.8195 6.510
47.8498 6.458
47.8801 5.312
47.9104 5.365
47.9406 4.583
47.9709 4.062
48.0012 3.750
48.0315 3.281
48.0617 3.854
48.0920 3.490
48.1223 4.583
48.1526 2.969
48.1829 3.594
48.2131 2.969
48.2434 3.385
48.2737 3.854
48.3040 2.552
48.3343 2.865
48.3645 3.177
48.3948 2.396
48.4251 2.135
48.4554 2.500
48.4856 2.292
48.5159 2.240
48.5462 3.073
48.5765 2.292
48.6068 2.344
48.6370 2.396
48.6673 2.031
48.6976 2.656
48.7279 2.500
48.7582 1.979
48.7884 1.406
48.8187 2.031
48.8490 2.917
48.8793 1.875
48.9095 2.812
48.9398 2.240
48.9701 2.083
49.0004 2.448
49.0307 2.240
49.0609 2.083
49.0912 2.292
49.1215 2.760
49.1518 2.656
49.1821 3.073
49.2123 2.240
49.2426 2.448
49.2729 2.031
49.3032 1.927
49.3334 2.135
49.3637 1.875
49.3940 1.875
49.4243 2.135
49.4546 1.771
49.4848 2.969
49.5151 2.448
49.5454 2.396
49.5757 2.656
49.6060 2.448
49.6362 2.292
49.6665 2.187
49.6968 1.927
49.7271 1.771
49.7574 2.448
49.7876 2.604
49.8179 1.927
49.8482 1.615
49.8785 2.031
49.9087 2.448
49.9390 2.135
49.9693 2.135
49.9996 2.187
50.0299 2.708
50.0601 1.719
50.0904 1.667
50.1207 2.031
50.1510 2.292
50.1813 2.083
50.2115 2.656
50.2418 2.292
50.2721 2.083
50.3024 2.812
50.3326 1.771
50.3629 1.354
50.3932 2.083
50.4235 2.552
50.4538 2.396
50.4840 2.552
50.5143 1.927
50.5446 1.667
50.5749 1.771
50.6052 2.656
50.6354 2.552
50.6657 2.083
50.6960 2.031
50.7263 2.656
50.7565 2.031
50.7868 1.979
50.8171 2.396
50.8474 2.135
50.8777 2.344
50.9079 2.812
50.9382 2.396
50.9685 1.771
50.9988 2.031
51.0291 1.823
51.0593 2.448
51.0896 1.562
51.1199 2.240
51.1502 2.656
51.1804 1.875
51.2107 2.135
51.2410 1.302
51.2713 1.979
51.3016 2.083
51.3318 1.875
51.3621 2.292
51.3924 2.135
51.4227 2.083
51.4530 2.083
51.4832 2.135
51.5135 1.354
51.5438 2.812
51.5741 2.396
51.6043 1.979
51.6346 2.240
51.6649 2.656
51.6952 1.927
51.7255 1.510
51.7557 1.771
51.7860 2.292
51.8163 1.927
51.8466 2.187
51.8769 2.708
51.9071 2.344
51.9374 2.604
51.9677 1.823
51.9980 1.562
52.0282 1.771
52.0585 2.031
52.0888 1.927
52.1191 2.240
52.1494 2.292
52.1796 2.031
52.2099 1.979
52.2402 2.240
52.2705 2.396
52.3008 1.979
52.3310 1.771
52.3613 2.083
52.3916 2.344
52.4219 3.073
52.4521 2.500
52.4824 2.083
52.5127 2.135
52.5430 2.344
52.5733 1.354
52.6035 2.240
52.6338 1.823
52.6641 1.875
52.6944 1.771
52.7247 2.031
52.7549 3.333
52.7852 2.812
52.8155 1.875
52.8458 1.719
52.8761 2.083
52.9063 2.031
52.9366 1.979
52.9669 1.927
52.9972 1.979
53.0274 2.083
53.0577 2.240
53.0880 1.927
53.1183 2.448
53.1486 2.865
53.1788 2.604
53.2091 2.292
53.2394 2.240
53.2697 1.458
53.3000 2.448
53.3302 1.927
53.3605 1.198
53.3908 1.979
53.4211 1.979
53.4513 2.292
53.4816 2.292
53.5119 1.979
53.5422 2.240
53.5725 2.604
53.6027 1.823
53.6330 1.771
53.6633 2.344
53.6936 2.187
53.7239 2.656
53.7541 3.073
53.7844 1.875
53.8147 2.292
53.8450 1.927
53.8752 2.708
53.9055 2.656
53.9358 3.073
53.9661 2.135
53.9964 2.604
54.0266 1.875
54.0569 2.292
54.0872 1.771
54.1175 2.448
54.1478 2.396
54.1780 2.292
54.2083 2.292
54.2386 2.240
54.2689 1.927
54.2991 2.604
54.3294 2.344
54.3597 2.917
54.3900 1.979
54.4203 2.292
54.4505 2.240
54.4808 2.031
54.5111 3.021
54.5414 2.656
54.5717 2.917
54.6019 2.187
54.6322 2.187
54.6625 2.604
54.6928 2.500
54.7230 2.187
54.7533 2.187
54.7836 1.979
54.8139 2.396
54.8442 2.865
54.8744 2.917
54.9047 3.125
54.9350 2.448
54.9653 2.240
54.9956 2.656
55.0258 3.021
55.0561 2.552
55.0864 2.292
55.1167 2.708
55.1469 3.125
55.1772 3.177
55.2075 3.177
55.2378 2.917
55.2681 2.344
55.2983 3.542
55.3286 2.917
55.3589 3.229
55.3892 3.542
55.4195 2.917
55.4497 3.073
55.4800 3.177
55.5103 4.375
55.5406 2.917
55.5709 2.969
55.6011 3.542
55.6314 3.073
55.6617 3.594
55.6920 3.125
55.7222 3.490
55.7525 3.385
55.7828 3.854
55.8131 4.062
55.8434 4.896
55.8736 5.417
55.9039 5.052
55.9342 4.844
55.9645 7.187
55.9948 5.990
56.0250 6.667
56.0553 7.083
56.0856 7.656
56.1159 9.062
56.1461 10.312
56.1764 12.187
56.2067 12.396
56.2370 12.708
56.2673 14.687
56.2975 17.031
56.3278 18.646
56.3581 21.875
56.3884 24.635
56.4187 24.531
56.4489 27.604
56.4792 24.531
56.5095 24.115
56.5398 25.312
56.5700 22.917
56.6003 22.552
56.6306 17.396
56.6609 19.531
56.6912 16.146
56.7214 14.323
56.7517 14.844
56.7820 12.969
56.8123 11.510
56.8426 10.573
56.8728 9.427
56.9031 8.073
56.9334 7.656
56.9637 6.719
56.9939 6.667
57.0242 5.833
57.0545 6.302
57.0848 5.677
57.1151 5.000
57.1453 4.844
57.1756 3.906
57.2059 3.333
57.2362 4.531
57.2665 4.219
57.2967 3.542
57.3270 3.021
57.3573 3.437
57.3876 4.323
57.4178 3.281
57.4481 3.958
57.4784 3.177
57.5087 3.698
57.5390 2.292
57.5692 2.917
57.5995 3.177
57.6298 3.385
57.6601 2.917
57.6904 3.073
57.7206 2.240
57.7509 2.448
57.7812 2.865
57.8115 2.969
57.8417 2.604
57.8720 3.021
57.9023 2.865
57.9326 2.760
57.9629 2.552
57.9931 2.500
58.0234 3.021
58.0537 2.344
58.0840 2.292
58.1143 2.240
58.1445 2.708
58.1748 2.031
58.2051 1.615
58.2354 2.865
58.2656 2.604
58.2959 2.292
58.3262 2.604
58.3565 2.083
58.3868 3.021
58.4170 2.969
58.4473 2.604
58.4776 2.708
58.5079 1.615
58.5382 2.760
58.5684 1.823
58.5987 2.344
58.6290 2.760
58.6593 2.396
58.6896 2.187
58.7198 2.187
58.7501 2.448
58.7804 2.396
58.8107 2.187
58.8409 2.396
58.8712 2.396
58.9015 2.448
58.9318 2.187
58.9621 2.187
58.9923 2.187
59.0226 1.771
59.0529 1.719
59.0832 2.396
59.1135 2.031
59.1437 2.708
59.1740 2.031
59.2043 2.708
59.2346 2.135
59.2648 2.083
59.2951 2.135
59.3254 2.500
59.3557 2.187
59.3860 1.979
59.4162 2.187
59.4465 2.292
59.4768 1.771
59.5071 2.240
59.5374 2.240
59.5676 2.031
59.5979 2.187
59.6282 2.760
59.6585 2.344
59.6887 2.500
59.7190 1.927
59.7493 2.448
59.7796 2.865
59.8099 2.187
59.8401 1.667
59.8704 1.927
59.9007 2.708
59.9310 1.562
59.9613 1.875
59.9915 2.552
60.0218 2.292
60.0521 2.135
60.0824 2.708
60.1126 2.135
60.1429 2.917
60.1732 2.500
60.2035 2.031
60.2338 2.292
60.2640 2.865
60.2943 2.500
60.3246 2.344
60.3549 1.771
60.3852 2.240
60.4154 2.135
60.4457 2.031
60.4760 2.083
60.5063 2.708
60.5365 2.240
60.5668 3.385
60.5971 2.344
60.6274 2.292
60.6577 2.917
60.6879 2.344
60.7182 2.604
60.7485 2.552
60.7788 3.490
60.8091 2.135
60.8393 1.927
60.8696 1.719
60.8999 2.292
60.9302 2.135
60.9604 3.281
60.9907 2.396
61.0210 2.344
61.0513 2.604
61.0816 1.562
61.1118 2.708
61.1421 2.083
61.1724 2.812
61.2027 2.760
61.2330 2.448
61.2632 2.760
61.2935 2.708
61.3238 2.187
61.3541 2.500
61.3844 2.083
61.4146 2.396
61.4449 2.656
61.4752 2.135
61.5055 2.656
61.5357 2.865
61.5660 3.177
61.5963 2.292
61.6266 3.021
61.6569 2.969
61.6871 2.292
61.7174 3.490
61.7477 3.125
61.7780 3.177
61.8083 3.125
61.8385 2.969
61.8688 2.396
61.8991 2.708
61.9294 4.219
61.9596 2.917
61.9899 2.812
62.0202 3.177
62.0505 3.958
62.0808 3.437
62.1110 4.219
62.1413 4.323
62.1716 5.052
62.2019 4.479
62.2322 5.104
62.2624 5.208
62.2927 6.510
62.3230 6.406
62.3533 6.042
62.3835 8.281
62.4138 8.385
62.4441 9.323
62.4744 10.052
62.5047 11.250
62.5349 11.823
62.5652 16.198
62.5955 17.969
62.6258 18.802
62.6561 21.667
62.6863 21.875
62.7166 23.490
62.7469 22.396
62.7772 24.010
62.8074 22.552
62.8377 19.427
62.8680 21.615
62.8983 19.635
62.9286 19.792
62.9588 15.625
62.9891 13.854
63.0194 12.083
63.0497 11.406
63.0800 10.677
63.1102 8.385
63.1405 8.229
63.1708 7.031
63.2011 6.875
63.2313 5.885
63.2616 5.104
63.2919 5.052
63.3222 3.906
63.3525 5.104
63.3827 4.583
63.4130 4.062
63.4433 4.792
63.4736 3.750
63.5039 4.010
63.5341 3.073
63.5644 4.010
63.5947 3.073
63.6250 4.010
63.6552 2.708
63.6855 2.500
63.7158 3.073
63.7461 3.646
63.7764 3.333
63.8066 2.760
63.8369 3.542
63.8672 3.073
63.8975 3.073
63.9278 3.125
63.9580 2.708
63.9883 3.281
64.0186 2.865
64.0489 2.708
64.0791 2.552
64.1094 3.437
64.1397 3.021
64.1700 3.437
64.2003 2.500
64.2305 2.344
64.2608 2.812
64.2911 2.604
64.3214 2.656
64.3517 2.708
64.3819 1.979
64.4122 2.396
64.4425 2.187
64.4728 3.229
64.5031 2.240
64.5333 2.708
64.5636 1.979
64.5939 2.448
64.6242 2.240
64.6544 2.240
64.6847 2.344
64.7150 2.917
64.7453 2.135
64.7756 2.448
64.8058 2.344
64.8361 2.031
64.8664 2.865
64.8967 2.552
64.9270 2.865
64.9572 2.396
64.9875 2.292
65.0178 2.917
65.0481 2.552
65.0783 2.552
65.1086 2.240
65.1389 2.604
65.1692 2.292
65.1995 2.448
65.2297 2.083
65.2600 3.385
65.2903 2.135
65.3206 2.812
65.3509 2.292
65.3811 2.656
65.4114 2.760
65.4417 2.292
65.4720 2.812
65.5022 2.448
65.5325 2.292
65.5628 2.969
65.5931 2.448
65.6234 3.177
65.6536 2.865
65.6839 3.073
65.7142 2.969
65.7445 2.760
65.7748 2.865
65.8050 2.969
65.8353 2.969
65.8656 2.865
65.8959 2.969
65.9261 3.646
65.9564 3.854
65.9867 3.750
66.0170 4.479
66.0473 3.854
66.0775 4.635
66.1078 3.281
66.1381 4.687
66.1684 4.479
66.1987 4.948
66.2289 4.062
66.2592 4.948
66.2895 4.010
66.3198 5.990
66.3500 5.573
66.3803 5.833
66.4106 4.375
66.4409 4.844
66.4712 3.490
66.5014 4.531
66.5317 4.375
66.5620 4.479
66.5923 4.167
66.6226 4.531
66.6528 2.969
66.6831 3.021
66.7134 4.583
66.7437 3.542
66.7739 3.281
66.8042 3.177
66.8345 3.802
66.8648 3.542
66.8951 3.281
66.9253 4.010
66.9556 3.698
66.9859 3.281
67.0162 3.437
67.0465 3.333
67.0767 3.594
67.1070 3.698
67.1373 4.167
67.1676 4.531
67.1978 3.958
67.2281 5.208
67.2584 4.062
67.2887 4.167
67.3190 4.479
67.3492 6.354
67.3795 5.417
67.4098 6.146
67.4401 7.083
67.4704 7.083
67.5006 7.656
67.5309 8.333
67.5612 8.854
67.5915 10.521
67.6218 10.312
67.6520 11.979
67.6823 13.802
67.7126 14.531
67.7429 15.417
67.7731 17.292
67.8034 15.833
67.8337 18.281
67.8640 16.667
67.8943 14.896
67.9245 15.990
67.9548 15.469
67.9851 14.792
68.0154 14.323
68.0457 12.760
68.0759 10.573
68.1062 11.354
68.1365 10.781
68.1668 10.052
68.1970 8.490
68.2273 6.719
68.2576 7.448
68.2879 7.865
68.3182 6.458
68.3484 6.198
68.3787 6.146
68.4090 6.250
68.4393 5.885
68.4696 5.260
68.4998 6.458
68.5301 5.417
68.5604 5.937
68.5907 5.417
68.6209 5.833
68.6512 6.719
68.6815 6.406
68.7118 6.562
68.7421 7.448
68.7723 6.094
68.8026 8.021
68.8329 8.854
68.8632 8.594
68.8935 8.802
68.9237 9.115
68.9540 8.125
68.9843 9.271
69.0146 8.385
69.0448 8.229
69.0751 9.323
69.1054 8.490
69.1357 7.187
69.1660 6.979
69.1962 6.875
69.2265 5.156
69.2568 6.146
69.2871 5.104
69.3174 4.740
69.3476 4.896
69.3779 4.427
69.4082 3.906
69.4385 5.000
69.4687 3.437
69.4990 4.271
69.5293 3.490
69.5596 3.385
69.5899 3.229
69.6201 3.333
69.6504 2.812
69.6807 2.604
69.7110 2.812
69.7413 3.229
69.7715 2.500
69.8018 2.292
69.8321 2.448
69.8624 2.708
69.8926 2.708
69.9229 2.917
69.9532 2.292
69.9835 1.875
70.0138 2.031
70.0440 2.292
70.0743 3.125
70.1046 1.615
70.1349 2.083
70.1652 2.083
70.1954 2.031
70.2257 2.083
70.2560 2.240
70.2863 1.406
70.3166 2.240
70.3468 2.240
70.3771 2.292
70.4074 1.979
70.4377 1.927
70.4679 2.240
70.4982 1.458
70.5285 2.083
70.5588 1.719
70.5891 1.979
70.6193 2.396
70.6496 2.083
70.6799 2.240
70.7102 2.083
70.7405 1.719
70.7707 2.552
70.8010 1.927
70.8313 1.979
70.8616 1.771
70.8918 1.979
70.9221 1.406
70.9524 2.031
70.9827 1.719
71.0130 2.083
71.0432 1.094
71.0735 1.458
71.1038 1.302
71.1341 1.667
71.1644 2.187
71.1946 1.615
71.2249 1.979
71.2552 1.406
71.2855 2.031
71.3157 1.875
71.3460 2.240
71.3763 2.240
71.4066 1.823
71.4369 1.667
71.4671 1.719
71.4974 1.823
71.5277 2.135
71.5580 1.875
71.5883 2.187
71.6185 1.458
71.6488 1.927
71.6791 1.875
71.7094 2.135
71.7396 1.406
71.7699 1.823
71.8002 1.510
71.8305 1.927
71.8608 1.719
71.8910 2.187
71.9213 2.187
71.9516 1.771
71.9819 2.135
72.0122 1.562
72.0424 2.135
72.0727 1.510
72.1030 2.240
72.1333 1.667
72.1635 2.240
72.1938 2.448
72.2241 2.396
72.2544 2.500
72.2847 2.760
72.3149 2.031
72.3452 2.292
72.3755 3.125
72.4058 2.917
72.4361 3.333
72.4663 4.010
72.4966 2.708
72.5269 3.229
72.5572 3.073
72.5874 3.229
72.6177 2.708
72.6480 2.604
72.6783 2.969
72.7086 2.396
72.7388 2.240
72.7691 2.604
72.7994 1.719
72.8297 1.875
72.8600 1.562
72.8902 1.510
72.9205 1.875
72.9508 2.240
72.9811 1.771
73.0113 2.448
73.0416 2.187
73.0719 2.135
73.1022 1.771
73.1325 1.458
73.1627 1.771
73.1930 1.667
73.2233 1.667
73.2536 1.198
73.2839 2.135
73.3141 2.292
73.3444 1.823
73.3747 1.406
73.4050 1.667
73.4353 1.719
73.4655 2.083
73.4958 1.250
73.5261 1.510
73.5564 1.458
73.5866 1.094
73.6169 1.719
73.6472 1.250
73.6775 1.094
73.7078 1.667
73.7380 1.562
73.7683 1.458
73.7986 1.458
73.8289 1.927
73.8592 1.406
73.8894 1.667
73.9197 1.667
73.9500 1.354
73.9803 1.250
74.0105 1.615
74.0408 1.302
74.0711 1.615
74.1014 1.719
74.1317 1.510
74.1619 1.719
74.1922 1.667
74.2225 1.562
74.2528 1.667
74.2831 1.562
74.3133 1.458
74.3436 1.615
74.3739 1.562
74.4042 1.406
74.4344 1.771
74.4647 1.562
74.4950 2.031
74.5253 1.354
74.5556 1.198
74.5858 1.510
74.6161 1.771
74.6464 1.302
74.6767 1.250
74.7070 2.031
74.7372 1.719
74.7675 1.198
74.7978 1.667
74.8281 1.562
74.8583 1.719
74.8886 1.406
74.9189 1.146
74.9492 1.406
74.9795 1.458
75.0097 1.562
75.0400 1.667
75.0703 1.406
75.1006 2.135
75.1309 1.719
75.1611 1.198
75.1914 1.406
75.2217 1.510
75.2520 1.823
75.2822 1.719
75.3125 2.187
75.3428 1.198
75.3731 2.083
75.4034 1.615
75.4336 1.198
75.4639 1.458
75.4942 2.240
75.5245 1.823
75.5548 1.979
75.5850 1.719
75.6153 2.292
75.6456 1.510
75.6759 1.302
75.7061 1.667
75.7364 1.562
75.7667 1.979
75.7970 1.667
75.8273 1.823
75.8575 1.719
75.8878 1.875
75.9181 1.406
75.9484 1.719
75.9787 1.927
76.0089 1.562
76.0392 1.667
76.0695 1.198
76.0998 1.823
76.1301 2.083
76.1603 2.083
76.1906 1.719
76.2209 1.615
76.2512 2.187
76.2814 1.615
76.3117 2.135
76.3420 2.240
76.3723 1.667
76.4026 2.083
76.4328 2.552
76.4631 2.708
76.4934 1.979
76.5237 2.292
76.5540 2.656
76.5842 2.865
76.6145 2.604
76.6448 3.073
76.6751 2.656
76.7053 3.125
76.7356 3.229
76.7659 3.437
76.7962 3.021
76.8265 2.917
76.8567 3.125
76.8870 3.646
76.9173 3.385
76.9476 3.177
76.9779 3.125
77.0081 2.812
77.0384 2.187
77.0687 1.979
77.0990 2.656
77.1292 2.969
77.1595 2.708
77.1898 2.552
77.2201 2.396
77.2504 2.135
77.2806 2.083
77.3109 2.396
77.3412 1.927
77.3715 2.187
77.4018 1.875
77.4320 1.667
77.4623 1.667
77.4926 2.552
77.5229 1.979
77.5531 1.719
77.5834 2.135
77.6137 1.667
77.6440 1.979
77.6743 2.135
77.7045 1.146
77.7348 1.719
77.7651 2.031
77.7954 1.615
77.8257 1.667
77.8559 2.083
77.8862 1.823
77.9165 1.927
77.9468 1.302
77.9770 1.198
78.0073 1.771
78.0376 1.406
78.0679 1.146
78.0982 1.406
78.1284 1.354
78.1587 1.458
78.1890 1.146
78.2193 1.719
78.2496 1.250
78.2798 1.250
78.3101 1.302
78.3404 1.615
78.3707 1.458
78.4009 1.823
78.4312 1.250
78.4615 1.146
78.4918 1.198
78.5221 1.562
78.5523 2.031
78.5826 1.302
78.6129 1.406
78.6432 1.146
78.6735 1.094
78.7037 1.719
78.7340 1.771
78.7643 1.667
78.7946 1.250
78.8248 1.146
78.8551 1.719
78.8854 1.406
78.9157 1.667
78.9460 1.302
78.9762 1.406
79.0065 1.875
79.0368 1.354
79.0671 1.875
79.0974 1.510
79.1276 1.615
79.1579 1.354
79.1882 1.510
79.2185 1.458
79.2488 1.562
79.2790 1.667
79.3093 1.510
79.3396 1.302
79.3699 1.250
79.4001 1.146
79.4304 1.302
79.4607 1.562
79.4910 1.667
79.5213 1.719
79.5515 1.198
79.5818 1.094
79.6121 1.667
79.6424 1.146
79.6727 1.354
79.7029 1.458
79.7332 1.562
79.7635 1.667
79.7938 1.667
79.8240 1.667
79.8543 2.083
79.8846 1.562
79.9149 1.354
79.9452 1.667
79.9754 1.562
80.0057 1.406
80.0360 1.823
80.0663 1.250
80.0966 1.354
80.1268 1.354
80.1571 1.771
80.1874 1.615
80.2177 1.615
80.2479 1.979
80.2782 1.719
80.3085 1.719
80.3388 1.562
80.3691 2.031
80.3993 1.823
80.4296 1.875
80.4599 1.250
80.4902 1.823
80.5205 1.667
80.5507 1.927
80.5810 1.042
80.6113 1.667
80.6416 1.719
80.6718 1.719
80.7021 1.875
80.7324 2.135
80.7627 1.667
80.7930 2.031
80.8232 1.250
80.8535 1.562
80.8838 1.875
80.9141 2.135
80.9444 1.823
80.9746 1.927
81.0049 2.031
81.0352 2.083
81.0655 2.187
81.0957 2.656
81.1260 2.812
81.1563 2.969
81.1866 2.552
81.2169 1.979
81.2471 2.500
81.2774 2.135
81.3077 2.187
81.3380 2.031
81.3683 2.292
81.3985 3.490
81.4288 2.083
81.4591 2.135
81.4894 1.615
81.5196 1.667
81.5499 2.135
81.5802 1.771
81.6105 2.135
81.6408 1.354
81.6710 1.823
81.7013 1.667
81.7316 1.615
81.7619 2.031
81.7922 1.667
81.8224 1.458
81.8527 2.135
81.8830 1.510
81.9133 1.198
81.9436 1.250
81.9738 1.719
82.0041 1.927
82.0344 1.615
82.0647 1.250
82.0949 1.198
82.1252 1.562
82.1555 1.562
82.1858 1.667
82.2161 1.354
82.2463 1.042
82.2766 1.667
82.3069 1.302
82.3372 1.458
82.3675 1.562
82.3977 1.719
82.4280 1.562
82.4583 1.823
82.4886 1.458
82.5188 1.198
82.5491 1.198
82.5794 1.875
82.6097 1.354
82.6400 1.042
82.6702 1.094
82.7005 0.885
82.7308 1.979
82.7611 1.146
82.7914 1.510
82.8216 1.562
82.8519 1.354
82.8822 1.406
82.9125 1.406
82.9427 1.562
82.9730 1.406
83.0033 1.042
83.0336 1.979
83.0639 1.562
83.0941 1.510
83.1244 1.094
83.1547 1.354
83.1850 2.135
83.2153 1.094
83.2455 1.406
83.2758 1.406
83.3061 1.823
83.3364 1.198
83.3666 1.458
83.3969 1.198
83.4272 1.667
83.4575 1.302
83.4878 1.615
83.5180 1.615
83.5483 1.146
83.5786 1.510
83.6089 1.615
83.6392 1.615
83.6694 1.823
83.6997 1.094
83.7300 1.094
83.7603 1.250
83.7905 1.719
83.8208 1.146
83.8511 1.198
83.8814 1.562
83.9117 1.719
83.9419 1.198
83.9722 1.615
84.0025 1.667
84.0328 1.667
84.0631 1.354
84.0933 2.083
84.1236 1.250
84.1539 1.354
84.1842 1.562
84.2144 1.458
84.2447 1.354
84.2750 2.031
84.3053 1.042
84.3356 1.510
84.3658 0.885
84.3961 1.458
84.4264 1.875
84.4567 1.979
84.4870 1.615
84.5172 1.302
84.5475 1.198
84.5778 1.094
84.6081 1.406
84.6383 1.562
84.6686 1.458
84.6989 1.510
84.7292 1.562
84.7595 1.146
84.7897 1.042
84.8200 1.458
84.8503 1.615
84.8806 1.979
84.9109 1.406
84.9411 1.354
84.9714 1.302
85.0017 1.719
85.0320 1.354
85.0623 1.927
85.0925 1.823
85.1228 1.562
85.1531 1.354
85.1834 1.562
85.2136 1.667
85.2439 1.302
85.2742 1.927
85.3045 1.198
85.3348 1.615
85.3650 1.146
85.3953 1.771
85.4256 1.302
85.4559 1.510
85.4862 1.719
85.5164 1.250
85.5467 1.823
85.5770 1.771
85.6073 0.729
85.6375 1.250
85.6678 1.562
85.6981 1.198
85.7284 1.719
85.7587 1.354
85.7889 1.719
85.8192 1.719
85.8495 2.083
85.8798 1.667
85.9101 1.302
85.9403 1.875
85.9706 1.615
86.0009 0.833
86.0312 0.781
86.0614 1.562
86.0917 1.667
86.1220 1.562
86.1523 1.250
86.1826 1.979
86.2128 1.667
86.2431 1.875
86.2734 1.458
86.3037 1.615
86.3340 1.198
86.3642 1.562
86.3945 1.250
86.4248 1.406
86.4551 1.823
86.4853 1.615
86.5156 1.146
86.5459 1.146
86.5762 1.510
86.6065 0.990
86.6367 1.667
86.6670 1.615
86.6973 0.937
86.7276 1.771
86.7579 1.406
86.7881 1.198
86.8184 1.250
86.8487 1.771
86.8790 1.354
86.9092 1.354
86.9395 1.615
86.9698 1.302
87.0001 1.094
87.0304 1.094
87.0606 1.719
87.0909 1.719
87.1212 1.250
87.1515 2.031
87.1818 1.979
87.2120 1.302
87.2423 1.510
87.2726 1.354
87.3029 1.875
87.3331 1.615
87.3634 1.458
87.3937 1.198
87.4240 1.927
87.4543 1.615
87.4845 1.667
87.5148 0.937
87.5451 1.719
87.5754 1.823
87.6057 1.042
87.6359 0.937
87.6662 1.875
87.6965 1.562
87.7268 1.823
87.7571 1.927
87.7873 1.771
87.8176 1.615
87.8479 2.135
87.8782 1.198
87.9084 1.302
87.9387 1.406
87.9690 1.250
87.9993 1.927
88.0296 1.562
88.0598 1.302
88.0901 0.833
88.1204 1.875
88.1507 1.562
88.1810 1.562
88.2112 1.458
88.2415 1.719
88.2718 1.302
88.3021 2.135
88.3323 1.667
88.3626 1.562
88.3929 1.615
88.4232 1.927
88.4535 1.771
88.4837 1.562
88.5140 1.406
88.5443 2.083
88.5746 2.240
88.6049 2.135
88.6351 1.354
88.6654 1.510
88.6957 1.979
88.7260 1.875
88.7562 2.083
88.7865 2.135
88.8168 2.031
88.8471 1.875
88.8774 2.448
88.9076 2.656
88.9379 2.552
88.9682 1.719
88.9985 2.500
89.0288 2.240
89.0590 2.604
89.0893 2.917
89.1196 2.708
89.1499 3.698
89.1801 3.281
89.2104 4.062
89.2407 4.219
89.2710 3.594
89.3013 4.010
89.3315 3.437
89.3618 5.677
89.3921 5.052
89.4224 5.781
89.4527 4.219
89.4829 5.156
89.5132 4.896
89.5435 5.156
89.5738 4.896
89.6040 4.531
89.6343 4.479
89.6646 5.000
89.6949 3.698
89.7252 3.229
89.7554 3.594
89.7857 3.698
89.8160 3.073
89.8463 3.646
89.8766 3.281
89.9068 3.177
89.9371 3.490
89.9674 3.333
89.9977 2.500
90.0279 2.760
90.0582 2.031
90.0885 2.240
90.1188 2.969
90.1491 2.135
90.1793 2.135
90.2096 2.552
90.2399 1.927
90.2702 1.771
90.3005 2.708
90.3307 1.875
90.3610 1.823
90.3913 2.135
90.4216 1.510
90.4518 2.396
90.4821 1.719
90.5124 2.552
90.5427 1.667
90.5730 1.875
90.6032 2.344
90.6335 1.719
90.6638 2.240
90.6941 1.615
90.7244 2.135
90.7546 1.823
90.7849 1.406
90.8152 2.083
90.8455 2.187
90.8758 1.771
90.9060 2.135
90.9363 1.354
90.9666 1.667
90.9969 1.667
91.0271 1.458
91.0574 1.510
91.0877 1.458
91.1180 2.396
91.1483 1.562
91.1785 1.719
91.2088 1.510
91.2391 1.875
91.2694 2.135
91.2997 1.719
91.3299 1.250
91.3602 1.302
91.3905 1.719
91.4208 1.198
91.4510 1.823
91.4813 2.448
91.5116 1.615
91.5419 1.719
91.5722 1.302
91.6024 2.031
91.6327 2.292
91.6630 2.031
91.6933 1.562
91.7236 1.458
91.7538 2.031
91.7841 1.771
91.8144 1.667
91.8447 1.667
91.8749 2.396
91.9052 1.979
91.9355 1.979
91.9658 2.031
91.9961 1.875
92.0263 1.719
92.0566 1.667
92.0869 1.771
92.1172 1.771
92.1475 2.187
92.1777 1.406
92.2080 2.240
92.2383 1.667
92.2686 2.240
92.2988 1.771
92.3291 1.719
92.3594 2.135
92.3897 2.656
92.4200 2.500
92.4502 2.344
92.4805 2.656
92.5108 2.292
92.5411 2.865
92.5714 2.500
92.6016 2.604
92.6319 3.125
92.6622 2.187
92.6925 2.656
92.7227 2.500
92.7530 2.292
92.7833 2.083
92.8136 1.719
92.8439 2.552
92.8741 2.187
92.9044 2.708
92.9347 2.812
92.9650 2.448
92.9953 2.708
93.0255 2.656
93.0558 2.187
93.0861 2.135
93.1164 1.875
93.1466 1.927
93.1769 2.187
93.2072 2.083
93.2375 1.927
93.2678 3.125
93.2980 1.719
93.3283 1.615
93.3586 2.083
93.3889 1.667
93.4192 1.719
93.4494 2.448
93.4797 1.927
93.5100 2.083
93.5403 2.187
93.5706 2.187
93.6008 1.510
93.6311 1.302
93.6614 1.562
93.6917 1.875
93.7219 1.562
93.7522 1.354
93.7825 2.031
93.8128 1.667
93.8431 1.823
93.8733 1.979
93.9036 1.719
93.9339 1.667
93.9642 1.406
93.9945 1.719
94.0247 1.927
94.0550 1.771
94.0853 1.667
94.1156 1.719
94.1458 2.396
94.1761 1.927
94.2064 2.031
94.2367 1.771
94.2670 2.031
94.2972 2.135
94.3275 2.344
94.3578 2.292
94.3881 1.771
94.4184 1.562
94.4486 2.187
94.4789 1.875
94.5092 2.135
94.5395 2.187
94.5697 2.031
94.6000 2.656
94.6303 2.240
94.6606 2.760
94.6909 2.396
94.7211 2.760
94.7514 2.708
94.7817 2.656
94.8120 3.854
94.8423 3.542
94.8725 2.917
94.9028 3.281
94.9331 3.073
94.9634 3.542
94.9936 3.698
95.0239 3.802
95.0542 4.219
95.0845 4.896
95.1148 4.740
95.1450 4.896
95.1753 4.583
95.2056 4.635
95.2359 4.375
95.2662 4.219
95.2964 4.896
95.3267 4.792
95.3570 4.740
95.3873 4.531
95.4175 3.750
95.4478 3.542
95.4781 3.437
95.5084 3.698
95.5387 3.698
95.5689 3.229
95.5992 3.281
95.6295 3.437
95.6598 2.708
95.6901 3.229
95.7203 2.656
95.7506 2.604
95.7809 2.396
95.8112 2.187
95.8414 2.083
95.8717 1.719
95.9020 2.708
95.9323 2.604
95.9626 2.240
95.9928 1.979
96.0231 1.875
96.0534 1.979
96.0837 1.771
96.1140 2.031
96.1442 2.292
96.1745 2.187
96.2048 2.396
96.2351 1.979
96.2653 2.187
96.2956 1.927
96.3259 1.719
96.3562 1.406
96.3865 2.448
96.4167 1.615
96.4470 1.667
96.4773 1.771
96.5076 1.458
96.5379 2.031
96.5681 1.771
96.5984 1.667
96.6287 2.135
96.6590 1.979
96.6893 1.406
96.7195 1.615
96.7498 1.667
96.7801 1.979
96.8104 1.458
96.8406 2.240
96.8709 1.302
96.9012 1.667
96.9315 2.135
96.9618 1.771
96.9920 1.823
97.0223 1.354
97.0526 1.406
97.0829 1.719
97.1132 2.187
97.1434 2.083
97.1737 1.562
97.2040 1.562
97.2343 1.719
97.2645 1.562
97.2948 1.667
97.3251 1.458
97.3554 1.354
97.3857 2.083
97.4159 1.875
97.4462 2.240
97.4765 2.135
97.5068 2.292
97.5371 1.823
97.5673 1.823
97.5976 1.875
97.6279 1.771
97.6582 1.823
97.6884 1.354
97.7187 1.458
97.7490 1.875
97.7793 1.510
97.8096 1.510
97.8398 1.406
97.8701 1.719
97.9004 1.771
97.9307 1.979
97.9610 2.240
97.9912 1.771
98.0215 2.135
98.0518 2.604
98.0821 1.823
98.1123 2.031
98.1426 2.240
98.1729 2.135
98.2032 2.448
98.2335 2.083
98.2637 2.604
98.2940 2.396
98.3243 2.917
98.3546 3.542
98.3849 3.646
98.4151 2.917
98.4454 3.177
98.4757 3.906
98.5060 3.437
98.5362 3.125
98.5665 3.333
98.5968 3.125
98.6271 3.177
98.6574 2.604
98.6876 3.073
98.7179 3.125
98.7482 2.917
98.7785 2.760
98.8088 3.073
98.8390 2.448
98.8693 2.812
98.8996 2.396
98.9299 2.187
98.9601 2.292
98.9904 2.760
99.0207 2.344
99.0510 2.917
99.0813 2.656
99.1115 2.292
99.1418 1.719
99.1721 2.135
99.2024 1.667
99.2327 2.344
99.2629 1.562
99.2932 2.135
99.3235 1.719
99.3538 1.667
99.3841 2.240
99.4143 1.510
99.4446 2.135
99.4749 1.823
99.5052 1.667
99.5354 2.135
99.5657 2.031
99.5960 1.562
99.6263 1.406
99.6566 1.823
99.6868 1.458
99.7171 1.406
99.7474 1.719
99.7777 1.198
99.8080 1.615
99.8382 1.354
99.8685 1.406
99.8988 1.927
99.9291 1.823
99.9593 1.302
99.9896 1.771
100.0199 1.615
100.0502 1.302
100.0805 1.562
100.1107 1.667
100.1410 1.510
100.1713 1.719
100.2016 1.406
100.2319 1.562
100.2621 1.406
100.2924 1.302
100.3227 1.250
100.3530 1.250
100.3832 1.927
100.4135 1.719
100.4438 1.406
100.4741 1.771
100.5044 1.510
100.5346 1.719
100.5649 1.510
100.5952 1.875
100.6255 1.146
100.6558 1.146
100.6860 1.302
100.7163 1.667
100.7466 1.719
100.7769 1.562
100.8071 1.719
100.8374 1.823
100.8677 1.198
100.8980 1.615
100.9283 1.458
100.9585 1.146
100.9888 1.667
101.0191 1.719
101.0494 1.250
101.0797 1.823
101.1099 1.771
101.1402 1.406
101.1705 0.937
101.2008 2.031
101.2310 1.719
101.2613 1.719
101.2916 1.927
101.3219 1.823
101.3522 1.562
101.3824 1.875
101.4127 1.354
101.4430 1.927
101.4733 1.771
101.5036 1.615
101.5338 1.667
101.5641 1.458
101.5944 1.719
101.6247 1.198
101.6549 1.354
101.6852 1.562
101.7155 1.354
101.7458 1.458
101.7761 1.406
101.8063 1.927
101.8366 1.771
101.8669 1.875
101.8972 1.562
101.9275 1.979
101.9577 1.823
101.9880 1.719
102.0183 1.667
102.0486 1.719
102.0788 1.823
102.1091 2.187
102.1394 1.979
102.1697 1.406
102.2000 1.875
102.2302 1.615
102.2605 2.187
102.2908 1.927
102.3211 1.875
102.3514 2.187
102.3816 1.979
102.4119 2.292
102.4422 2.396
102.4725 2.448
102.5028 2.917
102.5330 2.448
102.5633 2.135
102.5936 2.500
102.6239 2.240
102.6541 2.969
102.6844 2.969
102.7147 2.708
102.7450 2.552
102.7753 3.542
102.8055 2.396
102.8358 2.656
102.8661 2.448
102.8964 2.865
102.9267 2.708
102.9569 2.396
102.9872 2.865
103.0175 3.073
103.0478 2.604
103.0780 3.125
103.1083 2.812
103.1386 1.719
103.1689 2.448
103.1992 2.500
103.2294 2.448
103.2597 2.292
103.2900 2.031
103.3203 2.187
103.3506 2.760
103.3808 3.229
103.4111 2.604
103.4414 2.969
103.4717 2.396
103.5019 2.500
103.5322 2.969
103.5625 1.562
103.5928 2.708
103.6231 3.021
103.6533 2.604
103.6836 2.812
103.7139 2.396
103.7442 2.917
103.7745 2.969
103.8047 3.021
103.8350 3.594
103.8653 3.646
103.8956 3.177
103.9258 3.854
103.9561 3.594
103.9864 4.479
104.0167 3.594
104.0470 2.812
104.0772 3.646
104.1075 3.750
104.1378 3.594
104.1681 3.385
104.1984 3.802
104.2286 4.167
104.2589 3.073
104.2892 3.229
104.3195 3.958
104.3497 3.698
104.3800 3.333
104.4103 2.865
104.4406 2.656
104.4709 3.281
104.5011 2.604
104.5314 2.448
104.5617 2.812
104.5920 3.125
104.6223 2.500
104.6525 2.552
104.6828 2.396
104.7131 2.500
104.7434 2.500
104.7736 2.552
104.8039 1.510
104.8342 1.562
104.8645 1.927
104.8948 1.927
104.9250 2.031
104.9553 1.458
104.9856 2.083
105.0159 2.552
105.0462 1.823
105.0764 2.292
105.1067 1.667
105.1370 2.448
105.1673 1.406
105.1975 2.187
105.2278 1.823
105.2581 1.771
105.2884 1.719
105.3187 1.719
105.3489 2.240
105.3792 1.667
105.4095 1.823
105.4398 1.667
105.4701 1.875
105.5003 2.083
105.5306 1.771
105.5609 1.302
105.5912 1.354
105.6215 1.302
105.6517 2.031
105.6820 1.771
105.7123 1.927
105.7426 1.042
105.7728 1.562
105.8031 1.458
105.8334 1.771
105.8637 1.979
105.8940 1.562
105.9242 1.354
105.9545 1.771
105.9848 1.510
106.0151 2.344
106.0454 0.937
106.0756 1.979
106.1059 0.990
106.1362 1.354
106.1665 2.292
106.1967 1.094
106.2270 1.354
106.2573 1.302
106.2876 1.667
106.3179 1.458
106.3481 1.406
106.3784 1.406
106.4087 1.667
106.4390 1.458
106.4693 1.198
106.4995 1.615
106.5298 2.083
106.5601 1.458
106.5904 1.510
106.6206 1.302
106.6509 1.771
106.6812 1.615
106.7115 1.198
106.7418 1.719
106.7720 2.292
106.8023 1.927
106.8326 1.302
106.8629 1.510
106.8932 2.031
106.9234 1.458
106.9537 1.719
106.9840 1.615
107.0143 1.979
107.0445 1.667
107.0748 1.667
107.1051 1.719
107.1354 2.083
107.1657 1.823
107.1959 2.344
107.2262 1.979
107.2565 2.448
107.2868 1.562
107.3171 1.667
107.3473 1.719
107.3776 1.979
107.4079 1.562
107.4382 1.771
107.4684 1.823
107.4987 2.292
107.5290 2.135
107.5593 1.979
107.5896 1.406
107.6198 1.979
107.6501 2.292
107.6804 1.875
107.7107 2.396
107.7410 1.510
107.7712 1.927
107.8015 1.615
107.8318 1.875
107.8621 1.667
107.8923 1.823
107.9226 1.406
107.9529 1.771
107.9832 2.135
108.0135 1.562
108.0437 1.875
108.0740 1.458
108.1043 1.667
108.1346 1.458
108.1649 1.667
108.1951 1.771
108.2254 1.719
108.2557 1.510
108.2860 1.927
108.3163 1.302
108.3465 1.667
108.3768 1.615
108.4071 1.927
108.4374 1.458
108.4676 1.510
108.4979 2.448
108.5282 2.135
108.5585 2.031
108.5888 2.135
108.6190 1.406
108.6493 1.406
108.6796 1.510
108.7099 1.667
108.7402 1.562
108.7704 1.510
108.8007 1.615
108.8310 1.562
108.8613 1.771
108.8915 1.510
108.9218 1.406
108.9521 1.562
108.9824 1.562
109.0127 1.458
109.0429 1.458
109.0732 1.615
109.1035 1.562
109.1338 1.302
109.1641 1.615
109.1943 1.250
109.2246 1.562
109.2549 1.667
109.2852 1.354
109.3154 1.823
109.3457 1.562
109.3760 1.562
109.4063 1.562
109.4366 0.833
109.4668 1.875
109.4971 1.510
109.5274 1.927
109.5577 1.927
109.5880 1.771
109.6182 2.031
109.6485 1.927
109.6788 1.562
109.7091 2.187
109.7393 2.240
109.7696 1.458
109.7999 1.927
109.8302 2.604
109.8605 2.187
109.8907 2.292
109.9210 2.135
109.9513 2.760
109.9816 2.031
110.0119 2.292
110.0421 2.396
110.0724 2.552
110.1027 2.552
110.1330 2.552
110.1632 2.917
110.1935 2.344
110.2238 2.396
110.2541 2.396
110.2844 2.344
110.3146 3.073
110.3449 2.812
110.3752 2.344
110.4055 2.865
110.4358 2.969
110.4660 2.135
110.4963 2.760
110.5266 1.875
110.5569 2.031
110.5871 2.708
110.6174 2.083
110.6477 1.615
110.6780 2.135
110.7083 2.656
110.7385 2.135
110.7688 1.875
110.7991 2.917
110.8294 2.656
110.8597 2.031
110.8899 2.031
110.9202 2.292
110.9505 2.240
110.9808 2.917
111.0110 2.031
111.0413 1.615
111.0716 1.667
111.1019 2.083
111.1322 1.719
111.1624 1.771
111.1927 1.823
111.2230 2.240
111.2533 1.719
111.2836 1.458
111.3138 1.667
111.3441 1.562
111.3744 1.927
111.4047 1.510
111.4350 1.510
111.4652 2.083
111.4955 1.771
111.5258 1.562
111.5561 1.250
111.5863 1.719
111.6166 1.927
111.6469 1.562
111.6772 2.031
111.7075 1.406
111.7377 2.135
111.7680 1.302
111.7983 1.875
111.8286 1.719
111.8589 2.135
111.8891 1.458
111.9194 1.406
111.9497 1.354
111.9800 1.615
112.0102 1.562
112.0405 1.198
112.0708 1.458
112.1011 1.458
112.1314 1.667
112.1616 1.667
112.1919 1.875
112.2222 1.510
112.2525 2.500
112.2828 1.302
112.3130 1.250
112.3433 1.667
112.3736 1.771
112.4039 2.031
112.4341 1.406
112.4644 1.406
112.4947 1.458
112.5250 1.927
112.5553 1.562
112.5855 1.719
112.6158 1.250
112.6461 1.146
112.6764 1.667
112.7067 1.354
112.7369 2.031
112.7672 1.510
112.7975 1.458
112.8278 1.458
112.8580 1.562
112.8883 1.927
112.9186 1.094
112.9489 2.292
112.9792 1.198
113.0094 1.458
113.0397 1.823
113.0700 1.719
113.1003 2.396
113.1306 1.562
113.1608 1.510
113.1911 1.198
113.2214 1.771
113.2517 1.562
113.2819 1.927
113.3122 2.344
113.3425 1.198
113.3728 1.719
113.4031 1.302
113.4333 1.615
113.4636 2.187
113.4939 1.615
113.5242 1.562
113.5545 1.771
113.5847 1.354
113.6150 1.771
113.6453 1.250
113.6756 1.042
113.7058 1.562
113.7361 1.667
113.7664 1.927
113.7967 1.198
113.8270 1.406
113.8572 1.615
113.8875 1.042
113.9178 1.198
113.9481 1.302
113.9784 1.250
114.0086 1.771
114.0389 1.042
114.0692 1.302
114.0995 1.667
114.1298 1.823
114.1600 1.458
114.1903 2.240
114.2206 1.823
114.2509 2.187
114.2811 1.302
114.3114 1.198
114.3417 1.875
114.3720 1.458
114.4023 1.667
114.4325 1.562
114.4628 1.198
114.4931 1.094
114.5234 1.927
114.5537 1.354
114.5839 1.875
114.6142 1.302
114.6445 1.875
114.6748 1.510
114.7050 1.979
114.7353 1.979
114.7656 1.562
114.7959 1.823
114.8262 1.719
114.8564 1.667
114.8867 1.823
114.9170 1.927
114.9473 1.875
114.9776 1.406
115.0078 1.875
115.0381 1.875
115.0684 1.979
115.0987 1.667
115.1289 1.823
115.1592 2.604
115.1895 2.083
115.2198 2.604
115.2501 1.875
115.2803 1.875
115.3106 1.823
115.3409 1.615
115.3712 1.875
115.4015 2.187
115.4317 2.083
115.4620 1.719
115.4923 2.552
115.5226 2.448
115.5528 2.292
115.5831 2.760
115.6134 3.125
115.6437 2.656
115.6740 2.760
115.7042 2.604
115.7345 3.281
115.7648 3.385
115.7951 3.125
115.8254 3.698
115.8556 2.865
115.8859 3.958
115.9162 3.437
115.9465 3.646
115.9767 3.906
116.0070 4.062
116.0373 3.177
116.0676 4.167
116.0979 3.490
116.1281 4.219
116.1584 4.531
116.1887 3.594
116.2190 4.948
116.2493 3.750
116.2795 4.531
116.3098 3.854
116.3401 3.594
116.3704 3.385
116.4006 4.271
116.4309 4.219
116.4612 4.219
116.4915 3.646
116.5218 4.323
116.5520 3.490
116.5823 3.125
116.6126 3.385
116.6429 3.802
116.6732 3.437
116.7034 3.437
116.7337 3.125
116.7640 2.969
116.7943 3.021
116.8245 2.812
116.8548 3.125
116.8851 3.125
116.9154 2.708
116.9457 2.500
116.9759 2.500
117.0062 2.812
117.0365 2.500
117.0668 2.031
117.0971 3.021
117.1273 2.604
117.1576 2.135
117.1879 2.396
117.2182 2.656
117.2485 2.500
117.2787 2.031
117.3090 2.344
117.3393 2.708
117.3696 2.135
117.3998 1.562
117.4301 2.396
117.4604 1.510
117.4907 2.031
117.5210 1.719
117.5512 2.344
117.5815 2.344
117.6118 1.823
117.6421 2.344
117.6724 1.302
117.7026 2.031
117.7329 1.979
117.7632 1.719
117.7935 2.083
117.8237 1.771
117.8540 1.823
117.8843 1.510
117.9146 1.719
117.9449 1.562
117.9751 0.833
118.0054 1.354
118.0357 1.250
118.0660 1.198
118.0963 0.990
118.1265 1.458
118.1568 2.187
118.1871 1.146
118.2174 1.198
118.2476 1.875
118.2779 1.875
118.3082 1.510
118.3385 1.354
118.3688 1.562
118.3990 1.667
118.4293 2.135
118.4596 1.667
118.4899 1.510
118.5202 2.656
118.5504 1.510
118.5807 1.823
118.6110 1.615
118.6413 1.250
118.6715 1.615
118.7018 1.719
118.7321 2.083
118.7624 1.198
118.7927 1.562
118.8229 1.302
118.8532 2.187
118.8835 1.250
118.9138 1.823
118.9441 1.510
118.9743 2.083
119.0046 1.198
119.0349 1.562
119.0652 1.458
119.0954 1.458
119.1257 1.771
119.1560 1.302
119.1863 1.562
119.2166 1.719
119.2468 1.823
119.2771 1.823
119.3074 1.354
119.3377 1.354
119.3680 1.406
119.3982 2.135
119.4285 1.510
119.4588 0.885
119.4891 1.875
119.5193 1.406
119.5496 1.250
119.5799 1.354
119.6102 2.240
119.6405 1.406
119.6707 1.406
119.7010 1.458
119.7313 1.771
119.7616 1.771
119.7919 1.719
119.8221 1.354
119.8524 1.667
119.8827 1.979
119.9130 1.719
119.9433 1.823
119.9735 1.823
120.0038 1.354
